313
317
332
317
284
281
301
311
290
287
278
293
315
307
320
330
312
309
307
288
277
281
284
283
299
283
286
295
303
323
305
311
309
291
284
301
294
287
311
311
318
315
302
295
291
294
314
308
313
326
339
336
328
316
338
345
333
357
373
323
284
250
256
255
255
263
267
263
295
318
341
375
347
322
331
276
261
269
254
276
288
307
316
326
326
330
338
361
358
344
353
338
329
325
336
317
318
318
312
296
296
307
329
356
340
283
269
293
303
327
306
313
323
332
352
352
324
339
349
348
323
355
365
373
341
314
326
318
315
330
343
330
328
336
328
363
362
299
287
281
290
345
324
272
264
287
296
295
291
311
347
303
265
266
291
336
309
275
285
302
298
300
317
327
305
299
320
345
314
282
297
304
282
302
294
285
299
301
314
307
297
302
317
344
339
293
287
308
335
339
314
295
342
332
293
303
297
303
300
296
303
293
258
258
260
275
313
341
438
477
362
304
293
284
301
318
325
340
339
328
333
351
370
387
351
286
250
259
285
290
288
298
299
293
308
304
299
310
302
302
313
311
315
312
325
369
334
314
316
300
287
290
282
308
310
309
314
314
309
318
319
337
325
351
364
335
307
290
324
316
306
305
308
311
301
304
289
280
280
262
260
251
264
308
297
271
287
257
238
260
284
292
302
307
314
311
318
320
320
327
372
366
360
350
323
273
284
307
296
309
306
302
299
303
304
300
314
306
307
313
307
304
328
334
332
316
296
279
276
267
237
216
250
281
260
283
282
273
306
334
292
278
292
289
295
332
300
257
280
292
275
278
286
310
304
297
313
274
274
284
271
271
279
274
302
306
300
318
326
323
324
315
307
280
261
252
223
196
192
176
166
186
201
224
240
242
247
255
267
286
317
315
323
339
363
355
342
345
352
282
253
251
274
280
238
209
166
166
139
135
167
172
189
217
246
273
291
316
331
309
321
329
321
334
343
338
345
342
334
330
323
315
313
316
330
324
321
335
324
325
341
334
335
344
339
334
328
324
316
303
301
282
238
206
152
125
126
29
3
27
16
4
18
58
124
195
231
224
200
202
237
271
318
363
357
343
339
394
355
328
364
427
516
414
307
250
240
211
180
99
15
73
215
230
257
249
271
264
266
282
293
269
214
221
210
224
273
285
300
338
361
373
379
393
396
398
405
397
395
395
389
386
397
404
410
421
429
417
433
445
451
467
490
498
500
510
512
510
512
515
501
493
492
459
436
409
380
358
325
321
295
280
262
227
209
182
67
5
2
1
22
116
188
267
320
321
363
353
311
304
286
292
282
251
215
168
127
110
109
107
134
150
188
221
211
242
271
264
278
278
261
238
174
119
69
22
2
0
0
0
1
0
1
2
1
7
39
92
127
174
216
270
346
388
430
463
494
527
561
580
563
484
441
437
457
517
505
493
482
456
420
411
392
384
423
484
554
640
725
815
924
1023
1023
1023
1023
1023
1023
1023
1023
1023
1023
1023
1023
885
724
571
441
342
261
201
146
112
94
53
25
6
0
1
0
0
0
2
1
0
1
1
1
30
60
80
96
115
118
129
138
149
151
170
180
175
170
179
177
183
183
192
205
205
225
240
257
267
267
178
111
80
37
32
36
44
26
3
22
31
35
12
1
1
0
51
87
80
84
87
116
108
99
110
109
126
149
142
134
120
126
146
146
145
85
5
5
0
1
1
0
0
0
0
3
0
1
1
0
0
33
95
163
238
313
389
461
502
548
605
640
671
715
754
785
798
805
790
755
724
690
661
649
609
572
542
511
488
463
425
382
308
224
255
351
443
497
499
496
505
512
530
546
552
543
524
518
519
517
511
499
484
478
465
448
444
446
452
434
425
401
396
388
375
344
307
306
308
308
283
234
229
204
183
165
128
111
146
155
174
190
189
139
159
153
164
152
177
211
265
295
323
325
314
299
270
255
236
226
245
242
228
223
222
214
202
184
188
205
224
243
247
221
219
230
252
284
345
443
538
641
762
828
893
1023
1023
1023
1023
1023
1023
1023
1023
1023
1023
1023
1023
999
783
611
472
347
253
156
55
5
2
1
1
0
2
0
1
0
0
1
0
3
0
0
1
0
0
0
0
1
0
1
0
1
1
0
2
1
0
1
2
4
12
24
20
23
20
23
8
7
4
2
0
0
7
32
57
84
129
162
198
253
279
282
306
339
345
354
355
363
377
379
392
391
386
405
487
592
486
432
460
343
257
245
232
209
240
270
271
234
196
187
178
173
185
195
236
237
203
198
207
213
241
293
317
347
393
409
357
280
369
310
362
275
305
390
436
468
497
525
567
623
650
665
682
705
709
725
734
733
699
647
602
560
514
465
414
399
363
321
299
282
280
262
251
234
237
232
221
229
215
201
202
199
180
177
177
186
194
186
189
189
198
179
156
147
132
114
101
100
79
78
75
65
61
53
29
17
11
11
40
94
144
188
257
245
229
194
189
192
191
209
236
248
266
278
295
303
312
320
334
332
336
336
321
295
271
225
178
105
32
24
30
43
50
48
68
82
102
116
129
146
188
206
244
283
339
453
567
719
873
990
1023
1023
1023
1023
1023
1023
1023
1006
937
877
825
759
716
632
557
494
444
384
337
283
239
215
199
210
194
176
171
164
169
180
180
191
201
205
221
226
234
248
251
254
255
252
259
262
260
256
264
264
270
279
250
252
237
225
218
198
195
192
194
205
211
217
238
253
259
283
329
376
361
332
345
362
387
411
450
454
458
423
407
406
405
404
396
377
378
366
346
355
359
339
323
305
291
305
304
311
307
302
298
269
256
255
281
322
331
330
300
259
214
172
150
125
127
137
156
159
172
190
221
241
265
285
294
335
403
461
559
646
768
893
983
1023
1023
1023
1023
1023
973
907
820
719
627
534
458
396
334
284
243
204
176
160
133
122
110
97
105
99
94
107
108
113
128
130
149
162
155
161
166
166
167
157
147
158
161
163
145
142
161
174
169
187
189
196
189
177
165
164
156
164
179
155
141
155
182
212
199
210
219
223
231
236
236
245
246
245
248
248
258
259
268
288
290
284
291
283
276
276
268
255
243
204
185
167
147
140
144
166
188
198
234
280
321
372
421
461
512
568
626
673
699
729
722
729
739
753
754
763
748
727
729
720
717
701
688
684
668
648
628
566
530
462
379
304
249
203
170
143
119
103
90
80
85
124
172
234
320
376
414
454
463
415
368
370
318
269
234
210
208
178
175
153
126
120
114
128
123
133
96
81
68
55
52
64
69
86
90
100
110
102
111
122
128
144
136
140
174
205
218
227
173
155
163
167
185
190
186
183
176
187
184
178
199
206
215
240
211
149
143
153
174
163
136
122
92
66
43
10
2
2
2
1
0
2
0
0
0
1
36
88
146
202
255
293
326
373
402
415
450
469
484
508
516
509
509
503
495
487
466
448
438
438
406
381
375
376
399
432
438
455
462
467
474
463
452
450
434
433
450
454
481
476
468
456
453
468
470
446
445
484
488
490
477
480
484
475
465
488
450
396
338
299
313
340
353
356
403
406
402
384
375
367
340
332
285
232
208
199
192
222
239
238
248
268
273
238
217
223
216
249
273
268
271
287
300
324
353
357
359
354
376
370
358
338
311
274
262
258
292
342
357
327
300
271
222
173
161
115
94
73
39
11
2
1
0
3
0
75
145
229
293
335
390
393
457
572
701
550
470
492
431
518
521
399
356
338
287
243
299
348
407
480
529
545
525
507
497
461
413
373
334
302
303
299
324
378
415
453
508
533
553
556
511
478
492
471
442
450
478
487
503
533
541
503
508
530
520
503
486
453
449
421
353
244
205
177
181
202
215
186
184
194
173
159
166
164
171
177
224
267
293
338
348
333
332
302
301
302
277
246
234
233
242
273
301
310
312
311
282
257
271
309
369
421
461
429
333
301
287
305
316
325
317
330
364
378
387
397
346
309
331
321
321
348
343
320
325
353
347
321
324
354
408
458
453
439
442
414
367
342
320
305
300
312
306
283
281
317
339
334
366
355
387
425
422
420
446
440
449
452
441
415
419
431
374
362
353
314
281
285
274
227
219
223
189
174
179
150
98
158
182
140
141
160
166
201
221
185
197
224
240
240
276
281
248
290
325
320
356
386
325
296
357
318
241
225
163
95
68
45
20
28
31
6
0
15
22
1
61
114
113
171
226
228
265
316
311
311
353
378
343
362
351
252
241
298
281
309
415
404
409
465
497
503
594
672
689
717
745
696
629
643
595
526
538
533
487
483
485
449
440
446
432
419
453
464
425
433
453
420
414
454
402
395
424
406
401
438
437
409
418
411
376
365
315
257
223
218
181
122
81
37
12
23
56
63
78
116
126
151
175
159
129
116
124
152
169
180
182
175
218
230
242
260
280
271
284
300
310
319
326
366
386
414
461
508
594
634
530
497
476
472
466
447
420
376
345
326
302
291
275
280
276
281
295
287
283
269
272
257
230
222
215
223
241
258
281
308
339
403
469
530
569
580
578
565
539
494
470
465
470
462
438
431
426
420
427
425
422
419
398
397
396
375
364
347
329
309
293
295
306
330
339
348
345
323
272
231
228
217
232
248
258
270
238
207
206
186
193
188
152
165
180
184
187
208
234
218
172
133
114
86
64
25
4
0
1
0
0
0
1
1
2
1
0
0
0
1
0
0
0
0
1
1
0
2
0
7
5
4
6
28
45
87
124
156
209
262
316
367
394
428
450
472
504
501
497
483
478
475
504
543
576
600
651
703
760
812
826
799
752
717
657
618
556
505
493
485
460
420
374
346
316
280
262
252
265
302
332
351
376
374
386
404
406
406
417
418
430
441
442
441
445
439
429
420
423
422
412
424
410
386
367
337
294
281
272
280
276
273
285
281
288
280
265
265
258
201
145
122
108
135
181
214
251
258
240
187
133
121
103
117
152
177
210
238
257
271
280
282
280
272
269
265
250
250
238
229
235
220
215
208
203
199
201
204
209
200
199
203
195
196
198
195
203
216
222
231
252
240
227
228
206
194
203
199
229
265
304
319
314
334
360
384
428
448
471
492
495
481
467
454
457
467
477
485
484
481
481
463
449
442
425
431
439
446
464
478
480
490
471
451
453
434
407
362
302
254
201
149
136
124
130
149
149
170
177
182
192
197
200
203
201
210
210
208
219
222
215
221
216
209
217
207
180
175
169
174
140
105
105
81
74
58
43
54
99
132
180
251
266
271
261
257
257
236
243
256
252
254
253
250
253
251
253
270
274
294
312
317
337
341
349
374
374
371
368
384
392
402
382
352
342
340
338
317
307
260
219
241
285
359
428
438
455
473
482
502
520
530
558
581
604
622
619
630
652
694
742
770
770
759
727
681
651
621
589
554
512
487
449
416
401
383
378
394
377
382
400
405
416
426
429
445
443
436
420
405
397
389
391
441
456
468
436
389
351
297
244
220
202
181
175
169
150
158
134
115
104
107
138
131
128
116
110
105
106
99
100
97
91
86
69
56
40
59
86
106
116
107
104
116
141
203
259
291
321
326
317
291
289
277
281
276
259
250
231
208
217
216
230
243
234
222
217
203
199
199
193
214
233
246
272
291
314
353
386
431
449
428
440
444
446
456
451
454
455
446
424
398
359
348
338
335
330
319
326
332
336
363
361
356
350
347
352
345
347
359
344
351
348
348
347
345
343
332
321
319
309
301
301
290
288
279
276
274
266
268
245
251
254
234
229
217
213
205
184
190
172
167
168
158
154
135
131
131
128
123
117
97
93
66
13
0
0
0
0
0
0
0
0
15
79
142
194
217
241
251
266
267
235
203
168
157
201
243
281
332
344
347
348
342
359
385
404
446
441
430
422
415
417
412
413
442
462
490
541
549
442
404
388
375
338
312
344
380
419
468
506
527
543
547
560
568
570
569
554
533
502
465
448
411
360
315
266
216
197
182
161
164
176
198
230
253
288
331
382
456
501
577
675
773
672
605
554
522
481
459
443
424
409
409
381
359
364
339
328
310
301
302
294
293
246
199
189
186
161
172
190
184
177
167
164
170
179
192
225
211
204
214
237
269
269
282
294
289
296
301
299
296
302
290
278
265
243
212
193
194
227
277
324
371
401
376
338
300
276
254
237
222
210
214
221
226
238
238
238
244
218
183
160
87
31
31
48
76
107
150
209
253
309
330
349
378
379
386
400
396
388
385
371
355
351
355
348
336
357
359
370
391
397
399
402
418
426
421
421
411
415
425
416
404
429
405
389
379
370
362
358
351
347
309
295
300
278
260
258
240
237
251
226
214
209
192
204
220
240
235
240
235
214
198
211
197
165
179
185
172
182
154
177
191
201
214
236
245
247
243
239
242
239
251
268
267
292
325
340
353
370
378
400
460
534
602
639
695
669
622
594
559
520
516
501
498
512
509
508
466
410
396
412
438
451
446
416
393
397
430
450
445
468
478
477
488
487
471
464
447
432
399
362
338
295
251
225
189
158
151
143
152
171
205
236
255
258
250
271
305
305
319
337
342
356
370
382
389
392
383
375
352
353
371
344
310
293
280
286
272
256
277
272
267
271
254
259
248
229
192
169
153
180
182
144
132
116
119
131
139
168
177
191
198
186
197
194
190
201
183
173
181
157
143
140
136
148
145
139
138
129
117
104
108
139
199
247
270
307
278
259
239
222
231
257
284
309
322
324
338
338
344
344
345
336
310
323
351
373
405
427
438
451
458
470
470
463
460
442
436
434
412
399
375
380
376
368
369
360
369
371
355
352
352
350
361
380
397
404
405
407
406
413
403
390
365
369
365
372
374
359
340
325
311
299
307
293
279
253
251
239
241
235
225
219
214
206
187
189
193
185
177
144
110
96
84
81
95
99
81
67
70
74
64
68
102
127
145
180
202
195
205
224
235
262
255
224
205
191
175
162
176
237
358
444
460
460
443
405
360
328
295
270
277
281
268
242
233
209
166
132
155
176
219
246
280
331
376
401
420
430
443
459
471
504
548
579
603
614
602
590
560
543
548
529
513
491
471
471
483
489
507
514
535
541
562
590
614
642
664
660
649
628
595
582
537
494
463
430
409
382
361
364
322
291
312
273
252
211
202
200
188
175
183
203
202
196
149
151
185
181
158
147
121
100
101
103
106
125
121
97
81
53
35
21
41
104
146
192
241
287
324
284
250
232
211
197
193
175
161
159
168
203
257
294
351
372
366
347
316
278
246
239
259
251
240
236
247
253
252
288
318
297
299
329
351
386
448
518
587
636
674
678
644
571
478
412
395
355
329
318
303
275
249
250
243
238
226
247
261
250
279
289
298
316
336
372
410
406
407
407
403
406
389
395
391
381
384
364
345
358
358
333
353
369
375
383
390
407
408
421
418
393
358
287
202
188
178
160
136
124
119
130
160
176
189
193
213
214
222
234
238
242
239
243
261
263
287
294
292
294
279
252
215
160
125
118
123
129
154
226
264
314
324
311
293
276
270
275
275
268
273
273
288
309
320
329
302
259
248
242
235
244
211
198
210
219
217
231
247
273
307
349
381
386
404
402
395
409
411
413
394
358
331
343
359
374
327
301
315
334
365
407
424
444
488
497
510
528
520
519
504
506
499
485
484
479
473
458
432
428
403
384
369
348
345
330
327
328
302
293
288
279
279
273
282
278
238
224
216
224
243
260
278
293
298
303
327
326
332
340
326
331
321
305
274
207
156
129
132
132
118
29
2
0
2
277
405
420
416
412
407
380
353
337
308
295
283
274
298
336
343
378
399
482
518
492
502
484
459
429
397
392
391
386
393
396
393
398
390
396
401
400
417
415
404
401
384
387
377
364
364
372
374
376
340
325
310
305
314
304
274
262
265
279
298
317
336
336
337
355
345
358
360
348
349
354
326
318
350
346
348
345
346
355
358
373
377
371
396
415
374
338
307
284
269
250
239
240
234
231
216
196
187
190
207
182
183
196
205
195
182
176
181
182
166
145
107
84
65
52
63
75
68
66
92
104
113
155
239
310
359
418
415
388
351
295
278
290
282
290
270
230
203
197
212
213
190
161
148
162
168
168
176
204
235
275
325
383
434
469
527
572
595
610
619
610
596
556
531
487
439
394
340
298
297
295
305
324
329
360
396
386
407
445
497
557
598
588
521
467
447
425
408
401
371
341
330
278
257
242
206
168
125
99
52
16
39
56
63
73
85
123
150
194
225
201
194
232
225
208
222
237
242
242
234
229
249
276
286
309
309
307
302
283
299
306
313
322
294
281
262
244
239
252
281
255
251
248
205
173
156
101
86
86
122
178
242
301
342
328
301
244
222
229
237
263
290
289
324
373
418
454
475
508
501
496
506
504
498
510
507
501
500
488
481
465
458
456
434
442
430
408
402
383
366
356
346
341
328
344
355
362
378
381
394
402
408
404
396
411
410
410
422
415
424
426
433
423
430
438
433
424
435
436
430
421
395
351
279
228
206
164
145
123
96
73
40
5
1
0
0
1
0
1
16
57
99
110
135
152
152
165
175
174
176
182
184
190
176
176
175
160
178
189
194
233
275
308
348
379
398
398
394
380
363
391
458
498
506
513
468
401
379
394
407
444
432
415
437
445
478
493
534
576
568
610
644
671
779
768
766
796
839
880
845
800
745
669
587
505
412
359
307
251
220
195
181
141
128
117
95
106
148
147
147
116
68
48
47
59
102
169
250
290
306
398
556
552
452
366
309
302
260
222
208
184
162
143
141
128
133
163
186
164
125
134
128
111
84
60
74
102
106
128
140
154
158
161
191
204
248
243
222
210
227
232
225
250
271
276
288
306
295
305
306
292
282
272
271
255
232
215
176
165
195
239
270
286
299
284
252
237
208
193
179
175
196
234
247
274
267
250
263
270
279
274
268
272
284
301
298
301
305
340
354
375
378
369
377
377
378
383
393
397
417
421
439
446
435
446
448
448
445
447
453
466
468
488
487
490
506
509
501
516
523
526
540
557
572
576
525
465
430
390
362
333
319
300
273
251
248
216
192
175
143
133
88
32
4
0
0
0
5
45
67
103
126
146
176
201
210
223
245
240
276
273
280
309
319
322
337
320
320
310
298
288
273
296
306
314
323
337
364
393
418
441
447
444
427
369
339
327
363
377
342
343
336
329
313
297
260
222
215
233
229
239
254
269
302
330
348
367
372
388
381
368
367
351
350
341
307
289
295
293
302
304
310
309
300
309
319
333
375
394
406
420
429
423
426
429
438
464
469
459
441
434
416
371
351
327
315
315
309
300
296
295
300
290
287
293
301
306
289
261
252
267
256
262
275
252
257
265
259
264
262
263
260
267
284
285
249
230
212
208
222
229
236
249
248
251
256
256
263
256
259
260
251
257
253
242
245
248
259
276
290
303
302
273
272
270
274
295
281
284
287
275
264
243
235
223
216
230
224
245
295
313
349
381
410
431
429
422
413
402
390
364
364
367
419
460
455
468
429
415
420
406
390
378
369
362
344
353
341
317
315
293
278
284
268
270
272
271
271
266
262
276
284
284
286
285
299
296
281
282
302
309
298
299
317
312
322
329
326
329
326
329
317
322
328
319
324
316
299
309
315
328
344
319
302
279
290
295
290
286
283
276
291
292
284
278
283
295
305
308
309
301
291
291
272
276
294
264
258
246
235
227
217
214
210
201
189
187
198
225
238
245
278
304
334
388
405
408
410
418
419
406
407
394
386
389
365
322
254
203
167
140
130
112
121
147
156
165
162
155
146
142
156
166
175
210
250
286
315
356
383
376
364
369
363
358
341
318
307
297
292
295
308
332
351
382
431
446
482
513
494
498
481
447
441
438
449
490
526
566
616
640
658
637
564
411
307
235
204
185
176
175
182
184
201
223
238
241
263
304
400
498
418
352
320
308
292
285
283
293
292
314
315
298
285
278
240
222
231
234
232
236
244
225
215
231
227
230
246
244
267
285
299
293
281
273
265
252
261
256
250
247
208
162
140
122
143
160
196
222
246
285
325
347
391
416
422
440
442
433
442
438
437
430
423
407
390
380
364
331
353
370
397
435
454
430
407
400
361
340
358
357
353
372
391
385
405
410
415
430
430
409
408
417
423
401
379
369
335
343
357
360
326
343
344
350
340
335
309
288
278
261
243
231
222
213
202
179
151
143
142
106
127
144
143
157
174
184
178
187
183
157
168
196
249
287
326
373
354
343
317
289
285
281
253
253
255
239
236
241
262
291
309
333
336
354
367
356
345
354
351
353
355
360
321
291
315
308
277
281
255
208
208
186
169
168
169
175
199
235
271
313
359
394
418
436
443
424
408
415
390
360
330
309
298
310
290
275
290
299
299
341
370
389
420
443
456
469
473
462
453
462
475
461
441
442
433
430
418
397
389
382
380
376
388
362
340
319
328
316
315
303
273
268
257
233
217
228
217
207
203
222
241
247
268
262
250
284
287
304
320
310
299
282
279
267
252
269
263
267
266
254
225
195
196
200
201
234
216
218
248
252
275
270
248
253
246
244
214
200
228
254
313
387
436
506
530
519
514
506
487
448
443
484
530
517
537
557
542
499
480
481
443
407
374
335
345
348
323
318
311
306
316
318
327
335
333
331
343
349
368
370
357
342
316
299
248
227
254
262
264
271
269
279
289
291
297
290
291
288
279
276
258
276
283
255
225
210
179
179
161
138
108
79
71
62
43
48
40
82
83
112
142
153
151
184
225
238
249
254
256
260
280
286
295
286
269
265
236
221
215
191
188
174
166
167
171
191
207
232
243
246
261
265
278
291
301
311
310
321
339
351
373
357
322
321
335
352
391
416
455
497
542
593
622
663
710
760
801
810
781
737
664
599
560
532
545
534
505
495
424
346
285
247
224
219
222
220
222
223
235
230
245
251
235
221
216
230
243
249
246
249
246
263
275
272
277
291
301
297
301
288
274
255
255
248
239
216
177
168
186
185
194
209
195
192
203
229
228
232
225
214
227
241
243
261
273
271
282
288
288
303
303
301
307
304
335
320
326
339
341
350
357
354
367
363
357
367
365
360
359
335
321
303
276
257
223
208
207
219
242
234
221
210
211
219
229
232
235
203
191
225
261
294
325
346
360
377
388
389
379
372
377
363
360
351
345
345
336
342
340
335
347
345
343
352
354
366
373
373
377
373
360
360
341
335
329
307
291
267
253
264
299
342
380
420
418
397
357
334
312
296
296
275
280
293
296
279
269
257
234
217
202
171
155
139
135
141
129
137
140
137
150
177
163
181
178
187
202
220
229
241
246
256
269
268
266
269
264
277
265
242
234
215
202
187
195
222
254
260
294
323
373
401
405
415
417
407
397
371
372
382
385
390
352
298
269
274
325
365
398
402
417
454
507
539
583
622
638
651
656
645
632
612
574
541
507
485
444
394
353
314
278
266
239
223
214
225
242
252
258
289
301
304
322
313
313
308
299
320
328
327
331
333
334
314
298
314
335
319
294
276
284
288
265
242
218
197
195
173
145
126
112
102
147
191
217
262
288
279
262
246
235
229
225
229
246
251
255
260
262
271
282
300
325
316
309
301
297
297
297
288
289
278
273
280
280
290
294
295
301
295
297
298
293
291
285
272
266
256
251
237
211
210
189
183
196
223
247
277
290
308
319
322
338
340
342
353
354
367
368
386
407
413
415
412
405
398
386
379
364
353
348
328
311
292
262
252
238
240
258
271
292
310
319
341
343
349
364
361
367
370
367
365
356
357
368
353
359
371
347
355
336
331
324
326
327
318
325
333
338
337
333
313
311
288
273
239
157
172
207
219
244
230
221
207
195
194
177
164
147
122
112
111
130
186
214
275
328
315
315
303
281
272
270
279
289
293
308
304
297
296
287
291
290
290
294
301
309
323
329
346
360
369
370
366
370
369
359
365
358
368
390
409
436
461
492
561
624
671
695
684
686
686
671
649
618
590
581
568
574
574
566
530
473
426
402
354
325
314
294
286
274
251
226
197
172
168
149
139
122
118
122
129
131
132
137
165
182
196
221
224
228
266
276
283
280
287
295
288
276
275
266
266
270
266
254
257
253
235
217
202
189
173
176
158
175
161
155
167
174
163
180
195
214
234
251
270
299
325
357
372
393
375
324
300
295
311
343
375
420
402
365
332
291
272
263
256
246
229
226
210
211
213
195
185
192
197
208
206
196
194
180
174
176
189
225
238
239
251
259
311
348
363
376
378
386
400
415
434
453
452
462
442
441
451
447
457
456
486
507
509
478
466
453
439
423
423
399
383
374
357
350
346
342
341
338
319
331
320
322
356
354
362
370
352
349
339
331
330
316
311
284
266
264
259
261
254
228
229
258
266
245
221
265
246
229
204
177
169
185
169
175
215
227
240
245
273
283
264
281
265
222
224
210
222
229
231
237
228
228
206
177
167
147
178
243
261
291
315
290
269
216
191
177
162
175
193
196
200
180
164
177
196
220
222
221
247
270
297
321
308
292
286
276
288
298
308
314
309
324
342
328
318
289
264
261
248
218
222
206
210
237
270
303
329
353
365
392
434
450
446
449
442
438
444
448
445
438
440
444
426
433
427
434
441
423
402
407
387
374
388
392
389
390
368
365
355
360
349
335
342
330
333
324
333
334
321
318
296
266
288
286
283
278
278
298
306
324
322
312
318
316
298
294
287
275
273
281
284
272
285
292
284
290
298
296
305
292
284
257
225
206
186
191
215
217
222
238
222
211
189
202
219
261
308
330
346
338
308
308
303
282
281
280
297
310
308
312
314
321
341
361
378
380
347
343
368
363
375
388
401
400
405
416
399
395
396
359
338
311
321
330
305
263
280
365
377
352
358
369
349
351
351
342
346
338
337
327
331
349
329
301
327
324
350
350
327
302
305
296
282
273
263
254
248
266
261
261
294
269
276
291
295
279
293
318
312
299
291
289
283
300
277
252
280
287
284
277
263
276
284
292
287
277
306
324
303
320
341
317
343
374
373
376
383
375
349
333
343
319
351
366
296
323
369
345
312
295
238
203
231
275
307
327
345
324
324
358
350
336
363
372
363
361
376
356
336
352
327
297
309
296
269
285
284
284
281
274
276
280
305
324
305
336
338
315
340
352
352
365
410
391
380
405
400
384
411
380
332
358
372
342
340
359
337
303
320
283
236
233
234
187
202
207
194
181
219
216
188
219
238
209
221
232
226
241
270
258
248
278
301
294
318
335
330
369
371
348
377
409
406
399
416
417
384
398
413
368
360
366
311
292
309
284
271
314
318
315
343
322
292
296
311
263
211
197
162
200
337
357
390
446
439
396
372
383
351
355
384
367
363
402
396
373
383
382
354
338
344
312
288
308
285
255
276
266
249
264
281
280
282
298
285
279
310
303
290
308
301
294
301
326
318
311
313
280
270
295
296
288
325
341
351
360
383
359
299
267
229
219
253
276
255
241
229
224
205
212
204
184
196
178
159
152
124
148
172
213
236
237
270
269
264
258
253
241
233
234
245
239
223
209
191
196
204
206
236
235
213
230
240
267
294
283
265
267
273
274
255
253
239
231
230
229
250
269
270
280
273
252
233
196
132
49
7
0
0
1
121
224
318
338
324
344
370
403
441
475
494
500
541
515
535
547
565
538
538
541
524
500
495
505
510
480
488
478
437
451
450
430
430
428
433
420
392
382
364
377
369
369
371
346
322
301
287
276
264
263
267
279
273
276
318
331
315
320
330
344
358
350
356
371
362
369
355
375
416
425
400
368
334
326
312
284
270
259
258
258
264
257
251
251
254
237
231
223
214
207
191
166
158
150
158
164
172
190
196
231
249
257
281
310
346
378
400
419
426
432
437
415
404
398
377
385
395
394
378
363
356
317
261
241
245
296
352
380
434
437
413
392
368
348
374
377
353
362
353
369
363
350
354
329
338
346
324
335
343
357
340
335
314
307
299
289
267
248
240
226
213
200
172
173
168
155
144
155
157
133
104
129
142
152
167
181
197
233
231
243
268
279
291
289
306
305
298
261
258
281
297
297
286
295
285
296
297
315
339
357
385
403
392
386
383
370
361
335
325
314
319
322
301
222
147
129
139
170
171
121
119
152
204
259
296
341
376
404
428
447
475
493
512
525
526
523
522
511
506
484
464
448
424
403
377
351
326
296
300
309
344
406
421
481
483
456
443
421
413
418
430
460
474
486
494
487
489
480
466
455
430
414
386
365
352
316
298
267
227
200
176
185
190
160
131
120
125
118
107
110
107
113
131
146
175
210
232
249
250
245
248
230
227
250
254
278
285
293
303
298
303
308
313
323
319
327
329
331
334
320
321
312
302
294
281
275
283
293
307
324
340
347
333
330
315
311
333
340
346
314
309
336
356
383
391
390
402
394
400
391
380
378
370
373
363
370
372
362
351
327
308
296
279
271
271
267
265
255
248
245
241
273
327
389
409
404
400
358
331
320
304
322
329
324
327
321
354
347
338
322
311
297
298
266
219
212
218
249
282
293
274
237
233
215
210
191
161
145
118
88
111
125
113
107
111
131
141
160
187
193
205
217
245
268
290
308
329
357
379
368
356
363
370
372
378
360
352
345
356
372
368
361
331
299
308
282
278
281
286
307
303
260
257
274
316
336
317
287
279
294
309
313
331
338
351
370
393
426
431
429
433
411
403
387
358
321
279
231
205
176
164
165
168
201
223
241
256
258
272
278
255
362
434
470
533
585
628
679
614
543
490
463
467
481
461
433
444
411
356
346
322
301
274
242
222
195
191
185
186
184
177
201
212
207
239
229
229
252
240
243
266
252
271
277
269
290
298
301
314
329
331
332
328
336
331
326
342
341
345
370
346
325
335
318
298
282
257
234
196
182
170
167
206
252
293
312
319
347
383
417
456
463
517
516
501
497
463
424
424
406
375
360
369
350
358
382
416
422
434
440
422
423
430
426
437
447
440
444
453
458
457
446
434
404
370
349
274
299
313
311
326
324
313
289
263
253
251
272
270
264
260
240
231
221
214
213
199
198
181
164
148
126
113
116
100
79
83
76
75
79
90
87
80
107
121
121
136
125
117
130
102
49
40
86
134
167
214
239
262
300
305
326
339
358
381
394
415
423
431
461
474
530
618
565
527
470
422
371
308
289
301
319
318
250
223
252
315
371
428
469
474
536
599
617
612
629
629
605
599
589
598
594
582
560
482
423
330
220
156
118
123
140
156
233
276
388
525
464
437
377
302
283
277
278
273
282
328
392
460
512
525
520
475
426
403
379
332
252
175
133
119
136
147
154
194
201
186
136
101
74
54
61
69
54
75
79
87
115
101
90
83
91
103
107
135
158
178
212
221
240
261
284
316
332
362
373
386
391
391
366
366
360
360
359
357
362
345
340
332
327
317
303
303
304
297
312
343
409
475
488
472
484
484
485
486
422
320
278
278
284
305
343
382
366
345
318
306
290
270
248
230
216
191
194
253
325
370
372
382
402
438
461
478
491
486
488
465
450
417
388
358
330
309
303
279
278
279
274
262
230
212
194
185
178
180
217
243
254
253
237
198
182
172
151
143
127
172
178
169
177
156
145
158
157
171
179
183
190
186
189
215
202
208
201
206
212
204
212
211
205
199
180
178
171
163
173
155
147
150
135
142
146
146
135
128
146
221
249
226
211
231
248
254
231
170
169
185
231
281
275
263
296
344
401
447
473
499
520
549
575
608
632
657
689
722
672
641
594
543
513
470
403
345
329
322
306
303
309
289
296
307
317
351
377
409
450
473
507
518
528
549
552
548
544
534
521
483
432
369
315
292
262
244
263
245
222
201
176
175
167
160
176
170
181
176
177
168
163
169
189
254
329
379
419
428
415
390
387
375
386
399
406
408
398
410
401
388
390
385
368
353
345
345
340
321
292
296
314
338
343
378
384
369
380
389
391
395
378
366
346
318
298
276
285
301
299
328
360
395
424
440
468
488
506
518
501
488
468
439
427
426
442
414
399
380
341
310
300
279
268
246
241
250
221
237
262
263
245
234
264
276
256
247
253
236
247
234
216
244
260
271
256
252
267
265
256
263
259
256
250
232
213
198
196
202
204
229
216
191
162
156
158
152
131
103
96
106
104
90
72
44
52
67
77
79
93
139
181
250
306
280
312
299
256
215
189
185
161
149
166
159
175
168
150
165
185
213
228
237
252
234
203
119
116
163
205
260
287
335
360
371
371
318
279
272
295
300
309
348
383
377
402
414
418
467
460
451
455
456
469
466
485
494
505
495
465
417
398
363
318
290
259
230
191
184
177
151
166
181
122
76
13
0
1
86
235
441
619
553
542
551
574
590
600
580
570
542
532
522
523
514
501
468
469
461
425
401
348
324
274
238
220
192
205
197
195
215
210
222
225
228
222
228
270
290
302
326
343
354
371
381
378
378
385
421
466
536
560
582
582
569
514
416
361
326
294
289
282
259
248
247
224
220
224
249
260
307
358
367
399
411
382
345
346
332
342
359
364
372
374
373
365
348
348
327
326
327
316
320
329
333
334
334
349
344
348
355
353
361
363
391
408
429
436
425
440
448
441
449
459
442
434
398
368
353
320
314
309
314
317
302
311
309
306
308
293
276
238
213
195
160
138
107
82
53
37
18
12
9
24
6
1
0
0
3
0
18
49
52
80
119
161
205
229
248
268
273
276
272
259
257
261
280
294
306
347
346
320
253
197
241
330
382
409
427
444
445
414
426
413
398
393
343
251
207
190
205
224
220
190
192
218
233
220
227
263
269
301
299
322
338
327
326
307
294
295
280
251
210
147
72
4
1
1
1
0
68
152
208
222
272
339
384
430
460
485
511
551
614
642
676
721
740
768
768
721
684
654
619
594
578
550
530
514
473
422
405
371
359
324
320
309
288
280
283
275
289
282
269
283
288
288
268
270
277
278
304
313
314
327
331
318
315
332
353
363
385
404
398
383
374
362
362
342
316
291
284
284
280
301
312
293
298
290
278
294
299
305
308
306
280
254
255
283
319
366
396
404
399
351
295
275
282
331
357
393
417
416
442
419
391
376
373
373
356
360
354
319
314
313
301
299
305
307
327
343
336
333
339
340
343
341
335
294
295
314
307
276
257
277
286
295
224
250
262
280
272
246
257
255
255
233
202
199
226
165
144
131
136
139
129
124
125
117
105
92
77
84
72
95
131
139
146
137
168
192
184
193
186
194
223
221
219
226
238
237
231
259
271
287
309
303
313
333
342
353
373
390
389
346
329
297
270
271
260
247
243
208
131
68
58
47
46
78
16
14
67
112
152
195
253
289
332
395
420
459
503
523
537
532
513
479
428
401
351
337
380
386
385
393
350
297
250
252
247
252
293
304
314
340
348
377
403
427
462
460
492
491
512
526
511
491
481
467
459
444
440
427
395
394
360
334
319
298
267
243
216
179
167
175
186
198
219
229
235
261
275
286
298
319
341
357
380
401
426
434
436
429
429
431
411
410
405
392
396
396
386
397
401
395
399
410
424
436
442
444
426
429
423
399
387
367
341
331
324
307
301
289
278
231
211
209
216
212
232
259
258
284
331
356
388
407
409
427
433
446
461
458
454
461
459
474
472
471
474
465
468
459
444
433
401
384
359
330
314
294
280
281
268
269
267
248
250
251
287
349
372
406
419
390
369
316
297
260
251
258
245
258
260
247
242
232
221
218
198
188
183
184
180
175
181
168
144
139
122
124
110
95
80
66
68
80
84
91
85
84
103
115
153
164
172
193
209
229
244
249
231
216
204
183
169
171
199
251
295
357
418
438
458
510
599
571
517
433
347
303
268
236
227
185
159
172
181
206
213
224
247
258
263
293
309
323
338
349
375
349
345
335
330
337
319
303
308
300
309
307
315
338
364
407
436
474
519
541
569
585
601
625
635
641
644
621
594
538
482
458
440
429
398
346
298
251
206
194
247
257
272
291
230
193
152
142
124
100
103
138
151
187
195
208
229
246
247
253
279
285
279
288
295
295
315
312
320
325
317
314
287
279
273
249
251
236
225
223
214
205
193
192
216
236
250
265
269
281
280
290
287
287
280
280
306
328
334
354
349
326
322
315
309
308
324
343
358
381
400
409
409
423
434
438
445
446
438
442
441
418
440
434
426
425
418
413
391
379
360
332
355
318
304
301
293
293
282
294
302
292
298
291
292
301
298
310
306
315
314
321
340
334
334
349
333
337
334
340
321
298
290
279
305
348
341
337
376
357
322
295
295
281
255
264
252
228
232
209
195
190
187
208
179
188
186
188
211
177
161
171
169
178
184
165
152
139
116
92
97
107
137
169
215
249
287
361
487
626
607
553
512
485
451
430
426
433
421
387
361
333
339
359
373
390
397
426
431
396
396
382
344
308
285
267
267
287
305
311
341
362
364
378
375
364
354
342
311
277
273
268
257
283
306
304
313
319
340
372
389
388
349
293
220
175
198
221
232
261
298
356
393
466
557
568
541
532
480
452
407
363
333
327
285
258
255
206
159
169
194
227
227
254
261
247
217
161
135
135
146
151
166
188
183
174
196
193
209
238
226
243
276
291
298
327
336
344
360
384
381
388
403
377
361
386
385
358
361
340
302
294
280
253
211
211
212
210
237
265
280
307
345
337
362
360
362
387
408
393
378
382
378
344
356
342
323
323
329
319
313
336
342
326
349
354
348
362
362
349
345
344
343
320
325
305
270
269
248
233
261
256
273
276
285
290
293
326
331
307
332
343
321
314
304
294
283
282
259
263
269
269
261
248
246
229
225
174
166
139
91
57
15
16
59
83
133
184
230
246
209
186
130
142
122
90
103
164
196
207
275
314
335
373
365
336
351
380
388
375
415
429
436
458
468
448
449
461
454
452
450
447
437
423
414
338
322
312
303
318
316
274
257
265
294
321
362
407
430
474
502
503
515
514
524
511
485
459
428
403
379
321
290
226
179
180
181
174
156
122
96
129
184
209
229
320
418
404
430
434
437
461
506
514
485
484
465
448
442
421
399
395
388
354
311
290
259
223
217
194
167
161
166
174
190
185
195
191
205
241
280
259
226
220
262
289
300
315
326
309
308
296
275
267
274
324
357
390
404
355
318
288
262
236
222
224
232
247
256
273
280
303
297
300
288
270
274
282
290
288
279
288
286
278
279
262
260
265
265
255
250
272
294
314
329
331
326
318
294
283
282
292
301
313
335
351
361
393
402
414
416
419
405
398
384
375
376
387
372
384
394
394
394
390
389
373
368
375
360
343
366
375
378
371
373
368
350
342
321
305
303
262
212
168
103
74
33
18
2
0
0
0
1
13
0
0
0
22
102
134
184
245
310
380
408
433
461
476
497
511
515
528
539
525
497
461
445
398
382
371
404
471
513
561
624
658
673
627
579
557
540
537
523
514
494
470
465
466
469
462
436
385
360
371
402
417
404
350
319
311
279
264
247
229
208
233
210
211
247
297
283
318
339
357
374
380
350
276
237
250
260
240
219
177
155
201
303
338
353
370
393
399
406
432
413
431
420
410
412
371
325
280
229
186
136
113
78
78
83
90
100
99
87
91
75
80
71
75
93
85
110
150
153
170
181
191
218
224
240
248
256
281
281
300
298
294
292
292
285
291
289
299
307
309
327
358
415
466
502
522
500
475
426
388
391
406
443
443
452
432
392
357
317
306
298
290
301
306
301
300
295
292
283
242
234
260
273
295
306
309
321
320
320
325
312
307
300
281
266
246
229
204
179
177
180
200
217
233
255
261
265
265
250
282
315
359
385
409
430
442
434
437
418
419
411
405
404
401
399
394
391
392
383
369
367
350
354
336
336
351
334
293
280
243
222
189
151
133
107
85
95
82
89
80
95
136
158
163
174
184
196
217
236
253
264
274
272
261
267
264
263
264
264
266
249
227
206
195
206
205
252
332
422
427
423
436
490
546
570
584
585
560
530
500
451
385
363
365
368
370
342
284
256
240
249
257
279
295
314
342
363
388
415
441
465
461
459
449
448
445
439
442
442
442
446
453
471
469
366
325
372
485
592
666
630
586
574
537
442
464
536
620
681
635
624
603
588
565
518
483
419
384
360
324
296
258
231
222
203
201
197
178
193
172
179
173
181
174
157
139
118
92
85
79
78
87
89
89
107
118
136
152
175
198
248
243
237
229
223
223
218
222
221
226
242
254
261
258
247
238
222
243
268
307
325
341
392
419
457
528
565
602
617
586
552
497
435
386
366
383
380
376
359
341
326
310
299
300
280
250
227
211
186
165
144
130
105
86
80
103
109
90
112
127
127
136
133
137
143
150
170
156
186
184
214
263
280
289
311
334
355
355
370
371
364
364
358
362
344
321
317
291
289
283
267
255
245
232
218
228
222
199
194
190
178
173
160
148
152
169
184
189
199
201
182
200
197
195
216
217
206
213
209
218
231
244
257
254
261
275
285
302
302
324
345
352
379
394
401
411
394
402
398
399
387
363
331
289
285
287
267
233
148
97
69
52
68
70
131
199
220
234
242
262
293
315
341
366
384
414
455
475
495
487
465
419
371
320
290
283
290
327
357
369
388
383
401
403
403
424
438
461
480
479
491
498
511
512
477
436
387
349
350
349
354
352
351
340
325
334
329
318
315
321
321
315
300
300
307
317
311
297
298
272
275
258
265
280
269
283
287
285
298
280
282
281
273
289
282
283
296
282
287
286
304
301
301
307
303
310
305
291
285
275
276
254
260
246
227
231
221
233
244
249
260
279
281
284
286
295
299
298
270
295
299
318
359
384
412
433
447
463
466
484
474
439
425
402
416
457
464
475
475
431
381
352
328
282
263
248
239
227
217
209
207
208
229
225
248
272
285
309
312
320
327
347
363
361
375
383
363
366
338
313
292
282
282
253
264
269
255
254
232
219
227
237
247
233
233
221
204
220
215
208
212
203
208
205
210
228
223
225
237
240
259
266
261
263
257
263
251
256
252
247
262
258
262
258
258
247
241
250
261
258
273
288
294
311
323
336
358
351
346
335
334
321
302
297
260
242
207
159
125
109
109
81
53
51
64
90
142
174
215
247
271
288
328
361
395
426
468
474
476
470
475
525
528
525
480
458
444
353
288
253
239
239
249
295
337
380
428
446
471
505
520
563
571
596
607
610
609
539
521
503
468
456
457
440
415
398
414
389
361
361
331
343
334
312
307
292
265
249
280
298
292
291
319
305
283
292
260
232
216
189
169
153
164
183
190
208
198
202
211
230
274
289
320
331
368
409
433
474
536
599
576
561
545
519
508
489
443
440
428
394
361
326
299
257
241
222
179
179
162
156
190
231
253
270
295
308
291
312
318
309
327
338
342
357
379
372
354
373
369
343
356
358
323
324
302
284
268
302
353
342
397
409
364
361
338
308
292
297
296
278
277
274
238
253
251
246
258
269
262
237
264
267
258
282
271
247
256
263
234
222
239
216
177
208
196
166
186
186
158
170
183
164
175
217
213
201
237
219
200
224
220
202
211
239
223
209
249
207
166
199
186
147
148
140
93
117
224
204
179
224
206
184
224
240
203
222
277
265
277
346
341
317
315
304
320
411
509
561
629
733
768
845
992
1023
1023
1023
1023
1023
1023
1023
1023
1023
996
896
799
762
635
496
451
407
325
294
308
266
240
291
277
261
322
335
309
340
365
368
446
474
458
438
442
390
310
305
269
209
203
196
145
138
158
137
115
165
156
140
155
134
126
131
129
100
87
121
100
90
124
132
111
124
139
109
98
111
97
83
107
110
92
119
133
132
152
185
194
203
232
221
233
243
262
269
299
309
307
332
334
327
314
298
275
250
255
240
214
198
172
154
172
179
183
190
200
205
204
211
211
204
213
165
134
134
150
182
212
253
265
279
302
318
332
345
357
368
355
376
391
398
389
369
354
341
329
316
294
294
281
276
280
270
282
282
284
295
300
314
319
311
324
311
289
281
252
245
241
274
305
325
363
343
306
275
235
215
199
191
193
178
196
174
164
159
151
140
145
125
124
124
125
114
117
124
117
129
140
131
137
155
158
162
182
204
207
224
242
238
263
271
261
269
261
265
246
249
255
258
276
297
308
325
347
379
389
410
420
406
415
411
405
412
405
410
378
312
304
342
376
393
388
369
386
447
505
611
669
636
624
604
583
604
692
851
927
895
857
794
752
663
624
606
581
545
499
457
433
419
386
350
310
266
232
209
217
225
244
293
324
350
372
384
392
365
329
293
266
247
218
192
183
175
169
168
148
140
112
92
75
62
103
138
169
201
202
183
135
116
104
83
108
118
125
142
151
158
148
170
158
148
163
182
172
184
177
194
194
207
217
221
238
245
266
277
275
292
302
309
329
332
340
325
319
322
315
345
372
405
420
457
503
501
506
506
485
464
429
394
367
347
337
323
319
304
326
385
416
432
434
436
438
407
394
365
336
312
287
278
269
267
263
253
258
250
252
256
248
250
239
233
217
195
187
176
176
193
207
229
255
272
304
324
341
367
367
384
386
378
377
358
362
318
285
318
339
356
357
357
366
343
346
355
351
339
313
292
296
292
286
262
220
193
191
210
242
252
294
284
270
238
210
204
191
198
188
167
177
162
140
130
128
144
139
148
147
118
119
138
163
182
208
240
254
308
333
308
323
354
305
265
214
210
219
257
337
383
413
437
449
436
388
346
326
330
335
345
335
328
309
304
296
310
319
327
355
379
389
399
393
393
392
371
361
332
333
335
306
276
246
212
178
144
136
131
159
181
221
259
289
319
358
389
435
482
529
563
575
596
594
597
604
583
595
566
568
549
521
513
511
493
477
456
445
445
430
410
383
369
367
352
330
298
284
268
246
243
228
205
181
177
151
141
143
165
224
265
286
314
288
255
206
164
103
53
45
70
120
148
167
175
156
177
197
211
237
246
235
220
221
237
243
256
294
304
295
309
368
496
592
619
641
652
668
650
632
610
536
479
439
407
392
366
363
338
314
295
278
260
243
224
222
212
217
214
207
237
244
248
271
277
299
297
318
321
326
346
347
353
346
334
324
317
288
281
291
296
305
325
342
347
367
392
420
431
417
414
407
399
387
369
345
338
328
308
289
310
304
298
291
284
263
259
249
246
244
254
241
234
232
220
206
201
167
149
156
163
174
180
219
241
272
300
329
334
278
240
208
200
198
197
207
202
191
193
188
205
221
237
266
294
336
366
375
366
341
336
326
330
358
369
389
413
419
411
425
437
431
413
349
246
182
200
228
272
291
317
353
376
408
430
451
457
458
459
442
430
435
431
444
447
440
434
417
410
405
368
342
315
295
279
259
254
249
230
214
186
165
164
180
197
191
165
162
174
184
220
231
253
283
299
319
329
343
350
354
361
356
334
315
252
218
202
218
232
242
259
255
260
255
242
233
222
224
207
176
142
72
21
1
0
47
127
218
312
416
411
343
296
255
219
212
245
320
380
437
468
439
424
430
382
367
354
346
361
384
386
379
399
432
452
496
547
552
572
545
531
505
467
433
376
340
352
363
384
399
417
447
464
482
475
483
489
483
492
491
487
478
442
403
364
339
310
280
285
302
291
277
264
260
262
260
247
197
185
190
203
260
351
327
304
273
246
217
198
182
166
169
157
126
115
120
77
63
168
228
250
247
229
227
248
288
271
258
244
241
266
305
336
365
374
375
381
381
381
357
362
343
320
316
320
347
401
452
502
506
480
459
397
343
308
294
291
304
316
317
322
308
271
259
240
242
242
252
247
233
181
151
162
197
228
260
287
257
265
289
314
327
346
387
399
419
455
481
503
503
485
455
415
374
324
284
254
203
188
198
218
245
279
328
350
371
389
392
407
425
441
472
505
501
483
481
487
460
455
446
421
393
383
374
352
331
310
282
269
250
239
239
230
222
217
232
250
246
235
217
200
203
187
176
165
91
87
127
156
193
210
250
269
281
308
322
324
321
322
329
334
328
304
275
262
245
279
322
342
364
352
339
306
284
267
259
261
265
273
264
257
266
262
269
263
242
230
220
209
192
212
251
271
306
324
338
378
399
410
415
374
349
350
381
401
384
375
375
402
420
430
423
383
386
371
368
374
361
351
351
343
337
314
308
297
293
306
304
305
319
330
338
339
320
314
303
306
277
273
255
197
225
247
255
271
269
270
269
256
263
255
259
279
269
276
271
272
262
244
247
257
285
297
256
210
173
162
191
202
209
195
193
199
200
207
217
198
216
223
223
229
240
238
227
211
180
142
168
205
244
304
347
406
427
399
369
343
291
273
277
284
284
280
248
206
155
98
99
110
110
104
99
131
180
227
263
278
303
315
335
374
398
427
452
466
482
489
518
530
540
549
530
522
494
456
425
399
382
341
312
321
332
359
380
389
399
398
399
390
372
373
374
390
437
426
423
426
420
420
410
396
377
355
354
334
316
301
282
271
256
238
228
204
192
170
182
174
160
162
149
110
16
10
96
139
177
231
263
288
306
325
348
360
375
379
373
376
356
349
335
316
310
304
312
297
289
296
288
294
299
291
298
280
256
235
221
212
228
272
330
399
457
429
372
313
271
271
284
327
362
366
421
458
421
409
436
473
486
479
470
466
492
521
524
544
534
531
526
507
474
439
410
372
333
316
279
263
273
279
292
296
321
329
331
348
341
349
362
365
380
383
393
380
393
422
414
400
398
384
366
342
338
337
340
343
330
336
326
304
298
264
238
232
220
209
184
190
173
171
153
124
104
89
94
88
81
88
84
104
115
132
150
148
160
165
165
183
191
189
197
183
175
158
159
156
151
169
182
201
221
240
263
291
335
364
374
396
397
398
393
378
367
354
356
321
288
245
191
223
275
287
312
261
188
123
90
91
122
176
212
239
282
335
374
393
406
410
381
336
272
228
170
122
72
32
30
45
53
82
117
154
201
251
286
304
337
369
375
398
420
428
447
447
452
450
449
444
420
429
423
388
391
387
366
351
335
321
313
302
279
250
248
233
211
208
206
212
216
243
248
262
285
299
301
341
365
389
409
427
442
456
482
488
474
491
493
489
493
485
471
448
435
410
413
403
394
387
375
381
371
364
369
364
371
364
359
340
324
310
274
264
267
236
201
256
337
396
412
475
449
456
503
512
496
471
464
483
489
556
661
686
682
715
685
623
523
468
405
384
302
265
243
213
211
210
187
187
177
177
193
181
191
179
185
161
157
179
202
281
455
392
365
337
282
212
179
150
121
113
115
121
125
135
166
183
186
214
223
233
259
269
266
277
291
283
287
284
274
254
228
214
168
155
137
117
110
97
103
107
118
133
116
97
43
37
46
59
90
127
153
181
198
225
260
298
360
359
377
420
431
433
429
438
445
466
580
615
575
533
526
536
559
508
508
508
521
515
458
409
395
377
358
340
293
226
203
170
138
151
155
201
240
320
438
550
585
593
549
490
421
336
277
230
197
177
154
154
144
152
178
186
205
219
240
277
279
278
282
274
273
273
293
325
331
345
337
336
337
339
346
348
357
356
362
375
360
357
342
338
332
315
327
310
309
316
318
321
321
332
330
332
352
333
343
353
362
365
372
391
397
390
371
339
331
325
320
314
328
335
311
304
323
327
343
346
356
360
371
393
392
389
385
368
321
292
278
308
345
379
387
403
386
336
288
256
250
251
254
270
295
332
346
346
365
359
361
385
374
355
341
347
378
412
472
541
546
464
393
338
288
216
163
121
99
119
116
139
151
144
159
169
195
216
242
263
273
305
305
306
328
319
319
331
346
364
388
416
415
357
311
265
253
278
305
306
311
328
325
347
360
358
358
346
349
289
239
240
209
206
200
182
178
174
162
152
148
159
135
142
141
122
92
73
61
78
92
84
59
63
81
88
120
149
184
206
233
253
273
315
388
482
419
392
383
378
377
360
352
373
372
356
361
330
306
296
294
299
315
337
334
299
249
226
233
250
250
202
195
248
315
392
382
365
370
403
435
456
468
479
451
432
443
459
455
436
393
331
304
262
242
254
261
253
275
272
276
303
298
304
351
376
412
393
361
330
310
300
308
302
301
293
283
283
296
287
283
297
295
293
304
302
317
343
327
326
323
313
303
289
296
271
265
249
241
243
242
249
242
250
255
257
277
287
297
304
325
347
339
353
363
373
389
408
422
429
440
446
429
432
401
378
371
352
351
399
467
481
462
464
451
472
496
520
606
582
558
542
540
542
526
496
476
452
437
409
383
304
250
243
241
248
266
306
347
371
382
386
392
404
390
364
322
249
159
79
62
36
11
0
2
28
112
223
276
286
312
320
346
364
353
357
363
359
371
366
363
355
347
331
319
335
361
373
372
358
385
349
331
312
278
276
270
279
267
243
227
208
205
201
179
177
176
158
154
148
145
133
133
136
134
148
157
143
169
168
178
177
191
204
210
231
240
237
241
243
244
247
250
246
234
232
236
242
265
264
241
249
220
199
176
184
158
109
111
120
91
95
143
244
347
303
248
204
217
227
265
308
342
348
339
342
343
334
348
367
394
441
460
487
513
518
528
525
535
519
497
495
464
459
456
441
432
421
433
419
419
433
417
416
433
443
475
464
457
451
448
467
472
477
494
497
508
504
501
488
467
445
402
376
380
396
429
435
465
441
413
402
354
347
343
330
353
360
360
365
385
397
396
404
407
399
423
411
404
389
374
362
339
337
334
322
332
329
330
335
355
372
408
454
492
503
518
529
488
458
424
391
367
370
393
433
553
521
515
568
617
655
597
508
435
380
357
311
266
237
179
115
76
75
86
103
156
186
223
269
302
296
259
194
120
66
48
26
14
35
44
54
58
64
26
6
13
3
47
75
114
170
225
263
301
272
254
247
263
277
270
255
254
252
243
229
231
210
197
184
164
154
134
118
90
88
74
66
100
119
112
151
173
185
169
168
168
169
198
216
214
206
194
198
178
186
176
177
194
200
216
221
225
231
228
224
216
211
231
240
269
294
311
332
317
339
337
345
360
365
378
390
403
409
413
425
415
427
425
357
338
351
376
398
414
404
379
377
384
371
340
310
248
228
228
249
252
193
174
182
241
291
288
311
308
277
252
213
193
154
150
113
81
80
69
50
56
81
97
96
150
184
217
283
333
368
403
440
450
461
472
467
467
479
466
461
474
461
450
452
449
421
403
375
336
298
287
306
332
369
401
406
397
379
356
316
321
313
321
328
333
347
352
371
379
362
380
391
388
417
425
441
457
467
470
463
478
476
468
499
494
477
457
446
412
392
394
378
369
384
369
376
398
423
434
428
450
394
359
360
320
286
279
257
235
249
284
287
321
358
376
397
425
445
417
391
368
351
363
373
385
394
414
420
407
418
419
402
406
396
374
354
338
315
280
271
245
207
191
170
144
141
143
151
165
205
226
230
269
289
304
317
310
310
276
288
280
274
286
289
280
299
294
286
281
274
243
225
230
231
262
314
330
349
348
355
319
311
308
307
323
323
320
313
308
308
287
295
298
274
238
217
211
206
194
179
137
101
74
43
29
22
16
6
17
26
40
92
121
152
219
261
273
304
343
383
406
442
456
459
478
476
474
463
457
463
444
430
370
302
279
241
240
247
223
224
265
256
235
205
225
220
203
207
199
219
256
290
329
357
396
392
373
281
185
122
122
185
221
219
236
247
262
287
335
357
395
405
418
426
419
409
407
394
386
370
372
360
364
374
368
362
355
341
322
332
342
330
298
248
189
190
173
148
148
134
139
166
213
247
264
265
261
272
282
316
369
437
427
389
381
374
367
348
285
251
237
236
250
276
298
334
405
438
378
372
368
367
359
378
425
443
481
566
604
534
481
441
407
374
352
321
313
311
316
350
378
417
452
470
487
481
480
522
520
476
462
457
469
471
464
472
473
442
372
327
321
294
296
255
213
169
116
63
5
1
0
12
0
33
72
118
159
226
257
308
364
383
394
395
422
457
473
473
465
459
450
408
380
330
286
258
221
195
188
197
196
215
217
223
254
273
269
282
282
282
270
260
273
249
249
240
220
219
173
152
142
149
198
223
261
310
318
294
244
217
188
169
145
132
139
133
145
163
172
208
237
298
366
398
377
429
477
491
502
505
494
500
507
505
503
470
448
417
402
400
387
378
347
286
228
208
209
215
206
167
165
212
288
342
380
318
271
236
237
236
276
320
374
412
432
444
452
438
404
369
311
271
287
369
351
313
296
290
282
311
334
362
394
403
398
376
364
366
347
346
331
336
328
341
364
357
356
339
332
313
309
296
279
275
258
248
256
252
249
250
248
252
258
271
278
286
301
291
292
286
287
287
289
304
316
316
318
297
292
251
211
182
159
190
229
254
296
300
278
188
127
119
142
186
224
267
311
342
393
438
474
514
604
573
531
477
461
485
564
479
461
568
572
551
493
450
437
388
308
278
255
205
148
126
131
140
173
216
264
311
372
485
436
312
224
151
123
111
120
132
128
120
112
106
108
107
109
116
130
137
150
176
205
229
234
251
268
280
322
355
391
419
423
429
424
426
442
449
460
490
518
467
416
401
384
362
353
341
336
325
321
321
313
317
305
298
291
278
269
267
251
244
248
247
254
247
265
275
278
293
286
293
293
291
287
260
249
220
183
143
104
113
153
199
248
322
358
327
309
301
324
337
356
391
413
487
480
472
501
490
461
447
389
308
252
213
185
161
157
147
182
136
109
107
66
86
146
125
152
225
304
352
303
265
259
303
367
384
335
300
326
356
319
287
297
322
281
299
329
325
315
323
330
352
369
360
364
332
309
299
278
280
265
256
262
245
256
260
281
310
364
460
571
538
488
457
444
413
392
370
359
356
353
368
366
371
386
385
410
402
407
406
405
410
401
408
399
396
413
405
423
387
366
345
317
282
239
227
249
259
280
310
341
351
301
289
309
355
386
416
465
468
476
518
548
648
659
695
711
705
676
584
475
410
382
374
343
306
281
237
193
170
197
204
136
73
36
9
7
3
2
1
0
1
70
63
70
76
87
123
147
166
175
191
210
231
275
303
323
340
344
348
355
361
359
341
330
317
290
264
250
234
234
222
221
223
231
236
249
264
300
329
348
369
387
391
379
371
383
371
363
345
294
253
218
188
177
154
143
133
123
121
127
125
146
168
179
205
226
248
281
312
343
363
382
383
374
371
341
327
324
322
301
271
282
302
348
383
410
431
412
386
358
340
355
315
317
302
270
251
226
235
232
244
272
287
285
313
332
363
354
323
323
350
435
470
420
381
352
331
307
306
273
248
229
188
183
177
211
242
253
278
285
314
334
367
392
406
401
394
397
390
384
376
365
358
347
337
336
338
345
360
360
363
354
353
360
342
346
344
338
333
327
321
313
304
301
290
286
276
265
267
264
284
280
295
296
291
305
303
321
318
312
310
295
287
282
262
257
242
225
205
194
186
170
196
209
226
248
267
290
295
303
303
307
314
346
324
330
362
308
217
182
194
208
206
232
268
304
332
363
398
451
490
503
500
469
467
478
477
405
380
389
396
407
415
405
413
398
395
404
417
450
469
505
530
535
559
549
514
466
410
373
352
361
366
351
353
341
323
311
283
262
231
208
194
168
176
184
196
222
222
250
282
316
366
344
320
294
280
270
266
266
274
307
313
319
334
330
339
347
343
341
338
338
324
309
321
322
328
334
357
374
413
390
332
305
296
291
262
259
261
209
183
167
158
155
149
159
171
176
211
203
222
240
252
284
305
323
353
365
395
421
468
528
562
594
591
560
520
460
420
382
362
338
285
208
160
134
137
131
113
126
160
195
227
291
347
408
480
525
572
603
617
576
511
448
364
262
208
162
170
165
143
116
98
99
83
93
110
100
115
128
136
150
126
130
105
115
138
160
179
203
230
252
278
315
351
349
341
326
331
337
341
347
352
359
344
351
329
292
310
294
282
277
285
286
275
288
299
314
343
363
381
378
390
388
382
381
362
359
367
347
327
315
315
296
288
302
295
305
305
304
291
298
298
281
297
295
289
300
311
324
342
381
409
428
480
519
500
501
447
430
375
359
330
300
320
347
362
384
407
352
294
270
266
280
329
358
386
421
463
462
471
486
490
546
568
489
420
390
343
252
226
233
240
257
302
335
370
434
409
372
365
357
333
334
331
308
286
295
293
283
299
295
291
297
304
296
288
305
290
273
277
246
216
213
198
178
172
188
174
167
193
179
169
170
169
149
156
190
154
140
169
154
154
179
166
167
191
224
214
244
279
293
331
375
364
349
345
329
307
348
356
379
368
349
298
264
248
247
254
305
321
327
394
446
447
426
419
382
339
350
335
307
314
302
258
210
142
67
48
115
147
168
195
187
190
244
305
302
314
342
341
351
399
399
384
426
473
497
552
609
610
587
611
489
336
276
237
173
173
173
172
210
291
312
352
430
420
391
420
380
333
335
317
257
238
233
176
169
228
197
189
225
221
161
179
198
179
230
301
253
257
297
265
261
288
279
236
277
297
248
274
300
260
255
290
272
231
271
269
215
255
279
251
266
321
319
333
378
362
333
369
323
241
248
269
235
241
297
281
261
310
292
255
305
333
304
317
340
352
399
528
534
435
426
373
260
228
214
166
229
353
368
466
660
640
626
708
685
621
663
665
585
555
532
410
350
384
316
273
343
336
288
330
328
226
187
190
109
120
222
221
224
264
255
176
190
221
169
192
257
240
237
305
306
267
308
316
268
298
320
275
259
280
234
199
241
249
211
252
275
244
258
285
253
245
281
260
242
267
260
218
230
231
182
175
198
185
171
208
205
195
227
233
224
247
272
273
284
318
322
321
340
339
348
363
378
392
404
419
410
414
416
427
449
448
454
469
467
428
365
327
288
269
256
247
253
239
212
203
186
164
153
148
115
82
56
45
34
66
94
95
105
131
155
159
176
171
178
253
277
301
359
412
426
445
467
447
442
462
452
440
450
452
439
471
546
558
589
618
605
595
573
542
508
468
439
396
389
384
371
395
427
456
449
441
430
410
413
410
392
382
371
361
336
324
314
287
286
266
249
241
229
237
236
240
245
239
242
226
217
210
216
215
222
232
230
238
266
247
259
258
263
271
270
265
276
276
277
271
283
260
236
226
213
205
173
144
120
133
180
179
179
225
217
198
197
222
246
269
303
328
349
375
389
429
471
490
510
529
523
535
534
534
516
495
490
457
437
398
342
304
262
251
278
302
285
231
216
208
200
205
221
249
276
309
333
336
341
317
291
281
270
291
326
358
378
370
367
335
322
324
334
339
337
346
330
330
324
316
318
317
326
301
301
306
286
280
275
269
262
265
260
246
238
221
215
208
202
191
172
160
127
83
49
36
25
4
0
0
0
0
3
19
39
80
98
119
155
175
212
253
280
308
332
355
347
356
358
363
375
386
394
407
447
475
493
534
576
624
626
627
604
548
529
514
512
530
530
518
480
448
391
343
324
300
298
276
263
259
269
295
291
297
309
302
317
341
379
398
391
355
210
287
532
499
454
408
393
365
364
348
291
223
129
107
144
193
204
192
198
202
192
193
185
200
215
250
310
354
393
438
445
420
404
392
398
414
416
419
395
376
367
350
352
317
300
288
270
281
290
305
306
296
280
224
195
175
165
160
150
141
139
136
133
143
166
184
232
269
345
365
363
383
396
409
397
393
362
335
315
332
353
337
352
350
339
333
320
340
329
296
266
257
309
331
339
366
377
387
392
421
486
559
642
689
701
702
689
683
591
509
475
429
397
361
335
319
280
254
222
189
156
116
79
40
19
7
1
0
1
2
40
99
155
198
265
302
333
370
400
440
453
459
468
446
422
399
389
390
376
368
354
347
344
333
344
337
328
324
313
333
371
398
409
438
418
377
349
338
327
319
315
324
314
329
331
333
339
334
346
350
353
353
342
330
320
289
270
250
227
201
172
138
103
97
86
58
54
45
66
92
131
180
234
297
344
380
420
432
447
458
468
490
492
520
543
608
618
536
490
436
389
351
312
286
233
167
55
5
1
1
0
13
3
5
0
0
4
81
151
197
254
290
320
330
271
205
171
144
197
235
259
275
277
264
251
235
201
211
249
275
311
307
315
326
357
375
391
404
422
444
456
477
503
504
511
509
497
501
506
513
500
468
453
396
331
289
279
321
387
433
450
483
470
435
390
341
300
286
272
274
262
265
272
294
341
383
444
507
502
489
469
469
435
413
385
336
291
245
223
199
199
204
190
214
226
227
250
280
323
343
366
401
446
493
520
499
503
490
468
415
346
270
182
110
45
11
8
5
4
1
51
108
170
246
273
290
331
346
361
371
367
360
336
323
308
319
306
295
275
260
240
225
235
249
237
231
233
243
232
234
242
240
276
313
362
418
463
505
487
464
473
501
526
521
523
529
516
489
467
439
416
383
361
352
343
340
312
288
262
266
281
326
359
358
377
348
320
272
208
191
164
168
180
193
211
197
187
171
177
190
178
190
199
206
230
248
255
248
244
252
245
237
214
185
167
149
159
166
174
186
193
226
248
279
314
345
368
354
369
381
389
389
389
396
340
327
317
321
330
328
255
172
147
148
152
158
122
76
67
69
87
95
117
130
155
199
218
241
245
234
221
206
187
148
139
150
154
157
130
82
21
3
0
0
0
0
1
0
1
121
218
304
315
330
424
520
616
698
756
796
833
887
907
915
928
933
920
858
775
702
625
574
511
459
480
459
453
431
360
307
276
270
244
254
269
275
279
286
294
295
323
344
340
352
351
356
368
369
369
355
334
325
292
296
277
275
282
300
323
326
326
322
328
336
330
325
326
348
351
385
446
495
545
570
565
546
521
500
479
463
464
424
390
377
369
364
354
352
339
337
331
305
306
304
303
306
307
318
310
307
302
295
301
291
295
295
296
301
298
309
309
299
304
290
275
257
236
210
163
141
154
190
231
260
260
274
282
298
321
348
370
414
457
471
491
501
500
491
474
468
429
406
373
317
275
213
171
139
142
179
183
229
245
225
201
158
149
135
155
173
182
200
198
192
178
166
168
154
163
166
177
201
223
268
317
361
417
443
448
435
413
436
478
448
440
363
305
257
202
144
115
116
117
90
36
7
3
16
100
143
151
172
174
181
184
175
175
191
209
230
270
311
379
435
487
527
521
540
560
578
556
512
447
390
337
308
294
284
272
263
276
277
291
273
258
258
279
321
356
384
402
405
419
425
436
442
448
450
440
440
441
419
406
382
371
365
343
329
311
299
290
273
268
255
242
260
253
270
248
246
221
194
192
180
193
241
268
324
340
310
275
256
265
250
264
281
277
264
271
277
294
281
246
195
228
238
278
313
309
309
307
273
263
239
243
236
232
237
227
221
193
185
194
207
238
256
276
318
358
414
459
507
548
566
604
596
598
596
584
586
582
591
608
532
456
410
389
356
335
317
305
298
281
270
260
247
259
265
265
277
287
299
302
310
313
318
334
335
346
351
356
354
346
354
345
337
331
328
331
318
323
313
316
320
306
316
311
303
292
278
268
254
277
286
277
256
233
224
207
192
193
186
195
186
172
156
122
98
104
117
177
176
210
216
189
168
140
134
150
167
171
197
222
244
269
296
309
302
327
329
327
339
340
348
326
319
307
286
266
225
204
177
168
166
157
183
188
219
260
287
326
317
305
298
292
317
300
315
300
282
276
255
226
187
149
123
96
90
94
84
86
112
158
200
246
297
325
363
381
406
430
438
472
482
453
429
376
323
240
160
134
122
134
147
175
196
202
218
223
226
250
257
277
291
311
338
352
401
423
452
472
490
505
525
553
573
602
619
614
611
598
589
574
552
553
521
509
481
439
417
384
382
404
450
461
475
472
431
386
362
335
315
294
288
276
267
270
272
266
269
266
267
255
284
275
282
309
327
349
369
354
330
308
262
220
191
181
172
186
189
200
216
233
250
256
270
292
304
327
393
486
557
571
582
605
670
782
820
759
709
657
617
587
553
502
447
403
350
333
311
286
261
200
156
131
139
133
131
140
135
131
133
148
143
149
156
164
171
173
190
187
193
206
212
222
238
256
258
263
295
282
295
287
277
281
275
273
259
251
228
221
224
215
203
195
170
177
157
171
127
122
154
205
285
329
385
384
370
341
313
289
231
200
207
204
194
205
175
150
133
124
121
99
102
99
101
101
106
120
138
186
215
219
246
276
279
295
299
318
327
362
392
412
448
474
492
507
526
551
562
582
580
560
560
562
556
537
517
494
458
430
361
288
225
158
103
91
94
108
127
191
252
254
288
304
301
276
257
222
181
146
116
155
200
229
257
275
306
302
267
245
222
227
233
241
270
285
275
301
366
403
394
412
421
418
411
394
369
375
383
392
389
380
360
335
324
300
282
269
248
234
206
229
268
312
359
382
360
326
303
285
269
291
285
290
307
311
314
330
333
326
312
313
298
297
303
293
298
306
332
338
344
362
351
365
378
365
353
331
304
273
269
271
261
269
266
255
256
261
263
256
264
263
264
290
311
311
332
354
377
405
437
470
493
536
554
587
634
664
714
732
746
717
685
664
624
582
535
503
459
435
412
385
344
324
287
252
232
228
247
258
205
169
157
153
157
149
184
184
207
227
242
263
278
299
298
299
313
297
294
302
318
355
376
386
399
457
447
398
387
397
422
396
351
329
288
281
287
308
316
328
324
254
203
145
117
103
111
84
83
94
98
110
144
152
189
203
225
235
221
204
161
151
124
83
76
91
106
117
137
162
167
206
283
403
387
346
351
342
337
334
313
317
316
315
329
336
366
347
333
333
330
320
281
208
147
103
93
108
133
115
103
156
195
232
290
329
373
413
461
496
514
512
484
480
501
499
493
482
473
437
409
417
390
368
344
309
289
288
294
285
273
276
260
280
299
291
296
306
320
317
331
320
304
294
287
237
239
230
209
206
220
232
229
244
266
266
272
266
263
225
209
213
194
260
303
332
366
365
328
296
262
234
236
242
231
239
237
239
226
232
244
232
219
234
242
255
268
283
268
285
296
294
318
315
313
318
321
332
331
336
334
326
323
312
302
284
283
302
315
337
352
371
401
417
438
448
449
414
406
439
469
514
554
583
617
642
691
706
649
640
636
647
678
703
572
463
367
298
214
183
117
62
51
69
108
120
116
140
162
198
209
213
220
234
267
289
321
346
358
388
393
429
430
429
429
461
548
521
481
458
417
390
385
378
376
373
360
311
287
272
247
257
230
198
165
144
166
187
187
163
156
138
117
107
116
126
120
94
84
78
96
122
144
173
187
208
230
242
246
243
264
274
303
355
359
314
307
317
356
323
311
264
244
218
201
215
214
233
260
277
307
324
339
337
332
320
304
289
260
196
122
82
75
72
86
67
56
101
138
214
280
349
395
441
507
559
597
652
679
698
700
697
631
567
553
531
442
403
359
324
296
271
261
255
256
246
244
262
271
277
263
263
270
284
313
313
331
355
361
362
368
366
357
336
326
309
304
292
292
287
281
282
264
270
257
230
221
198
198
227
278
305
326
344
305
271
268
250
260
275
285
307
314
327
331
321
339
335
317
321
311
320
322
332
316
314
318
316
324
321
324
314
313
310
292
293
306
302
309
326
315
340
336
340
344
363
403
431
524
547
519
513
520
539
531
552
569
536
513
509
510
502
503
505
496
481
449
408
392
348
308
273
259
246
240
249
231
217
225
227
237
252
272
280
273
244
188
163
164
167
175
198
228
240
269
315
332
380
429
429
430
440
460
458
453
395
317
275
281
251
183
147
138
126
142
139
127
119
93
84
89
125
175
201
242
252
231
215
191
172
162
168
146
157
159
162
167
174
190
195
220
241
244
251
240
231
230
232
239
219
226
210
198
196
198
196
196
225
235
246
286
314
360
431
527
589
621
603
510
439
394
325
257
227
207
177
120
20
4
0
0
30
83
138
127
127
189
253
303
352
376
384
388
432
465
487
534
547
540
541
513
455
422
424
401
406
449
426
435
473
478
476
494
501
494
493
501
499
493
511
495
479
490
477
460
452
463
442
422
416
378
342
311
273
244
252
259
261
273
292
278
284
293
252
246
243
248
296
342
395
413
386
320
267
211
190
177
160
159
158
141
166
174
182
191
212
221
211
241
230
222
254
240
230
237
249
242
257
292
283
291
311
315
329
370
427
476
572
573
508
478
483
450
427
426
411
362
362
350
327
345
359
341
318
358
379
376
457
465
433
414
364
299
269
292
253
222
231
207
180
183
199
178
192
236
228
248
300
305
305
326
330
286
287
284
227
230
254
235
261
302
291
263
290
308
273
309
331
304
307
316
286
255
263
214
154
156
139
101
107
116
90
71
99
62
30
53
56
48
84
113
74
68
94
76
99
196
237
250
332
348
297
286
314
278
295
339
333
336
376
392
381
442
481
434
455
488
465
507
622
714
752
719
639
571
574
561
497
509
536
487
492
526
493
456
469
438
362
342
314
233
235
234
176
117
91
48
8
55
50
5
3
0
0
0
5
0
1
88
96
104
177
222
242
270
328
296
286
295
228
178
166
118
17
2
1
1
1
35
45
129
311
396
422
483
530
535
592
632
638
638
649
608
571
578
539
478
482
475
441
433
438
452
469
493
452
412
409
373
353
370
355
325
316
323
288
261
280
246
213
218
211
217
262
309
334
366
360
333
325
337
355
379
426
451
448
465
469
429
404
405
391
361
359
350
339
334
310
297
265
252
238
213
219
222
236
252
286
352
350
355
385
406
437
479
518
558
562
578
578
574
552
511
471
424
415
419
423
442
346
299
278
277
286
287
296
284
303
314
315
312
287
271
262
228
217
209
199
167
159
133
107
109
102
105
116
137
159
181
215
232
266
288
283
254
235
224
204
199
186
158
155
140
121
111
127
135
126
136
160
154
165
208
219
229
258
272
249
260
253
257
257
257
247
245
293
328
344
376
383
362
333
298
260
273
282
278
278
275
290
288
295
301
282
301
299
294
302
305
320
317
318
311
302
308
300
307
303
329
351
390
453
496
530
572
528
488
432
407
326
249
194
161
142
134
143
134
186
150
135
135
142
157
178
205
229
275
319
354
344
342
334
315
300
282
271
210
171
140
110
109
117
142
173
212
239
257
288
303
342
399
438
473
478
485
470
465
476
468
470
475
472
481
496
523
519
518
512
472
461
457
454
461
467
471
478
493
487
464
449
428
406
373
338
273
211
185
178
220
231
239
249
232
242
235
257
286
327
399
467
530
580
546
501
468
463
433
419
376
336
296
242
213
197
169
174
187
185
149
122
112
127
179
243
371
437
461
420
483
616
629
630
647
620
581
522
450
387
326
293
232
203
200
194
197
206
215
209
173
134
99
122
155
142
105
64
60
73
110
60
4
0
1
0
1
1
38
55
101
159
217
292
335
364
389
429
465
481
503
477
468
461
431
432
423
418
415
415
455
505
620
560
535
527
504
494
481
490
512
518
537
540
529
517
484
466
459
479
486
479
459
421
341
280
223
163
115
87
70
39
31
23
16
35
67
75
68
98
117
149
203
205
220
222
241
243
231
220
208
199
193
182
173
192
231
226
234
220
223
216
226
231
244
267
256
254
247
227
187
127
78
34
34
78
130
185
259
345
412
470
526
566
606
623
656
688
718
760
793
834
846
843
808
740
644
485
272
142
165
195
222
261
280
285
262
285
306
354
405
439
471
492
504
492
495
481
478
473
432
398
365
343
324
320
317
311
295
266
265
273
290
310
320
314
240
206
189
171
198
214
226
253
211
162
98
42
7
4
21
36
61
87
103
127
140
152
185
195
231
249
273
310
338
357
382
384
385
364
312
272
248
246
254
271
274
237
218
196
206
204
214
234
259
290
302
323
307
293
293
318
352
361
359
345
351
347
345
344
336
325
284
257
236
240
280
337
405
452
504
530
537
562
560
574
581
579
585
563
553
530
496
463
406
346
279
221
181
146
157
180
230
282
352
419
468
513
541
568
567
538
479
439
419
377
322
274
207
177
179
201
206
204
171
199
220
215
183
154
134
161
181
192
235
181
133
100
75
83
101
130
145
176
183
203
229
253
271
290
308
312
327
329
315
304
301
294
276
277
248
244
219
208
184
176
183
190
213
238
274
321
350
358
357
371
363
361
362
360
376
380
385
406
404
406
395
367
347
319
307
273
236
215
220
252
275
299
314
325
349
375
421
470
493
501
511
547
561
566
558
538
532
513
500
482
444
433
387
367
335
309
306
288
277
290
261
263
267
273
279
269
253
223
219
214
205
197
183
174
165
145
144
130
135
142
150
144
138
156
143
179
241
280
317
338
300
282
225
175
151
146
148
166
143
156
171
186
213
225
251
262
284
306
342
378
398
418
410
407
386
372
358
335
326
306
283
269
276
276
268
283
284
291
290
288
294
286
301
296
300
322
349
390
431
476
510
536
581
597
611
608
574
585
602
620
609
566
517
447
410
388
373
374
382
407
417
434
429
408
393
369
341
315
293
273
241
229
209
170
163
152
145
153
155
154
134
143
108
35
11
18
39
74
128
174
189
207
212
219
243
250
253
252
250
245
238
233
211
194
235
271
290
324
358
334
304
278
221
204
199
189
188
180
183
175
170
170
167
191
194
213
229
222
213
224
258
278
280
290
294
294
302
302
304
296
326
343
346
371
399
430
460
513
544
562
574
561
556
550
556
544
583
627
654
682
674
618
587
589
582
572
522
429
393
398
354
345
347
367
366
373
373
391
400
418
436
419
395
364
318
271
228
207
158
150
165
169
190
229
264
307
349
406
416
441
456
440
432
398
379
354
334
320
305
312
315
333
324
332
312
294
285
252
226
202
187
154
157
190
217
223
254
254
204
196
182
152
160
164
173
156
156
142
120
137
140
156
168
188
205
227
241
224
204
216
227
241
269
283
294
285
280
262
269
292
305
321
317
309
280
263
243
218
198
167
143
143
143
147
145
166
161
159
151
144
147
152
183
200
225
253
258
232
186
188
197
220
262
292
330
351
364
358
367
371
357
370
375
389
417
456
466
481
517
530
554
569
579
584
581
593
595
599
594
570
556
539
521
464
432
384
337
302
265
246
225
216
201
186
183
162
145
126
129
116
186
257
314
380
429
434
419
387
399
377
359
342
314
293
283
255
263
233
223
180
140
115
93
61
28
7
1
0
0
0
0
4
22
75
97
117
137
165
183
174
165
154
170
218
278
401
467
525
554
576
600
574
550
505
458
390
345
304
263
252
243
228
194
157
107
66
61
61
88
103
111
122
159
178
216
272
320
367
412
465
501
524
554
559
578
571
570
547
516
527
530
535
541
541
522
495
481
475
477
496
495
494
471
434
394
340
349
328
318
325
312
300
284
267
245
242
261
292
330
356
388
375
343
319
289
278
289
297
325
321
312
303
297
296
283
270
267
246
229
194
179
170
162
164
155
151
139
129
137
135
148
166
178
194
201
206
207
227
253
262
283
297
309
316
338
359
363
378
395
418
448
482
535
576
615
629
605
610
600
579
514
450
380
319
260
189
137
90
54
25
18
3
0
1
49
129
204
275
286
297
332
365
399
410
425
435
452
458
462
455
429
438
453
474
520
546
555
562
567
556
537
531
542
526
517
507
513
509
505
482
469
478
510
591
547
509
472
419
378
317
290
254
221
191
149
105
46
7
0
0
0
7
0
0
0
0
0
0
3
0
0
1
2
1
0
0
1
15
77
137
217
264
302
289
297
318
353
378
373
389
364
365
389
392
343
293
285
299
308
319
328
355
399
455
491
479
492
488
501
507
507
522
527
554
564
574
560
529
505
462
424
382
343
274
233
262
285
311
303
308
243
211
235
263
255
249
286
249
226
272
334
410
489
555
602
617
586
541
496
435
398
390
388
427
441
427
419
338
247
162
96
115
165
215
247
315
279
280
290
312
315
320
330
332
341
338
335
320
307
302
286
281
271
260
269
261
265
261
262
264
263
260
281
257
256
249
248
240
217
214
209
222
219
231
232
220
216
197
178
141
111
94
57
11
0
1
1
1
0
3
1
0
52
81
110
139
164
158
174
207
242
298
326
384
421
467
512
540
570
577
574
521
464
402
357
319
290
281
268
264
266
282
309
320
351
348
329
323
321
316
316
346
393
470
556
598
636
612
585
544
497
485
467
460
451
446
444
436
470
486
518
549
571
595
594
626
639
653
662
643
639
616
610
586
586
550
525
500
476
433
393
345
301
257
213
184
164
147
142
132
146
146
157
160
156
157
151
156
153
157
167
157
165
170
156
161
147
147
141
137
137
128
136
130
136
142
139
156
156
173
182
183
204
206
215
226
234
248
236
227
214
222
251
275
316
347
374
409
439
497
556
627
692
734
799
859
895
867
834
805
754
707
622
538
487
425
423
394
362
298
220
170
95
37
8
1
3
0
1
5
46
101
137
182
211
257
304
345
400
431
455
487
501
509
509
496
455
406
340
281
200
131
68
4
2
1
2
0
1
0
1
1
0
36
96
140
180
231
251
261
263
261
256
240
254
246
251
262
262
269
277
295
299
297
310
302
307
302
288
282
278
284
281
285
303
306
324
332
339
340
343
365
371
378
387
393
409
407
414
413
408
409
399
406
399
387
387
378
386
383
380
373
367
371
348
346
343
333
335
329
330
334
339
368
378
380
358
276
206
149
133
113
137
188
210
226
206
176
153
140
141
136
134
139
141
174
200
270
359
437
513
597
695
778
818
849
886
987
1023
1023
1023
1023
1023
1023
1023
1023
1023
1023
1023
1023
1023
909
825
752
698
654
619
590
550
539
520
500
469
425
397
350
360
361
332
320
301
308
268
236
185
144
118
73
48
20
6
1
1
1
1
0
1
0
0
1
0
1
1
0
1
0
0
0
1
2
2
0
0
1
0
0
0
0
0
0
0
1
1
1
0
0
1
2
1
0
0
0
1
0
0
0
0
0
66
149
192
247
285
314
345
369
392
409
447
481
512
548
560
583
579
589
616
601
590
560
511
474
439
416
373
297
153
92
74
71
106
156
196
185
257
354
451
605
732
811
901
980
1023
1023
1023
1023
1023
1023
1023
957
796
675
618
542
467
370
259
168
92
20
2
0
31
93
154
193
237
262
279
285
286
307
293
294
274
236
219
207
211
210
244
254
214
193
169
160
146
121
114
84
81
71
38
22
22
23
26
21
11
12
16
36
64
99
115
60
25
12
10
3
0
0
0
2
15
1
4
10
4
25
42
50
84
96
112
113
141
161
188
222
229
247
263
278
282
303
320
286
246
192
130
80
48
62
121
200
339
430
575
641
616
628
667
706
739
775
827
778
753
724
676
623
570
531
478
439
452
447
424
380
329
271
230
213
200
196
185
179
181
163
178
201
229
251
264
294
292
311
330
336
351
357
340
334
330
332
337
341
369
400
416
408
403
395
385
388
372
372
363
332
306
287
268
229
213
196
169
162
147
129
115
109
92
73
70
46
31
21
2
1
2
43
56
82
124
154
185
223
251
270
289
316
300
314
343
347
375
397
406
414
423
427
417
413
395
377
351
331
311
278
281
260
236
224
190
165
129
120
122
177
232
221
166
96
53
56
70
90
76
131
201
257
299
313
309
326
333
360
365
368
398
465
505
471
492
509
534
540
487
415
391
413
434
451
446
428
402
372
345
347
345
393
454
528
623
657
660
665
670
675
675
688
692
700
696
689
687
654
639
616
602
581
548
541
514
491
472
434
399
366
353
367
386
380
349
333
325
284
253
210
170
120
75
68
52
70
80
70
88
91
121
137
148
163
178
204
203
204
194
191
196
195
212
212
232
249
245
265
265
275
286
302
306
293
291
268
239
213
172
155
136
136
127
140
170
184
231
287
382
457
521
492
440
437
442
460
497
534
583
627
674
699
691
685
633
602
558
528
479
403
369
332
287
261
255
271
280
294
291
285
285
274
273
264
268
266
262
273
273
283
289
299
314
303
288
287
317
350
357
352
344
358
354
341
335
310
304
303
271
208
181
186
145
155
158
172
184
153
142
130
140
124
120
125
112
106
94
87
95
100
123
137
163
175
183
190
186
176
157
156
143
149
161
184
215
246
274
305
342
395
463
554
627
589
548
512
475
438
402
379
338
316
306
295
288
301
309
313
347
403
456
421
307
147
35
0
0
0
8
32
3
2
4
1
62
168
278
378
454
515
575
598
585
561
549
533
522
511
500
476
435
426
395
396
401
417
444
466
500
529
571
614
636
672
671
671
667
657
646
613
586
536
496
469
441
421
401
383
361
341
319
293
266
246
204
184
161
140
117
126
119
110
112
95
84
54
28
41
43
56
74
87
124
163
210
233
269
283
290
309
330
407
568
543
483
432
397
368
349
315
269
320
378
428
435
424
429
418
420
412
391
373
330
284
236
186
152
128
141
171
205
266
308
384
468
562
576
542
531
519
494
458
411
367
342
375
369
365
370
311
259
205
191
212
283
375
437
482
524
509
497
484
475
453
427
402
362
340
310
288
261
239
225
215
223
222
222
232
234
246
246
250
250
232
236
224
218
200
180
171
195
235
244
208
185
169
161
146
146
144
139
144
135
138
143
131
139
137
135
134
132
92
59
88
90
105
130
144
187
183
209
205
192
193
204
219
232
246
256
271
320
348
383
409
435
462
484
529
553
584
616
616
601
560
519
460
397
357
312
293
296
291
311
315
317
301
284
263
236
235
222
201
173
167
185
221
280
352
381
414
452
455
449
425
422
403
434
432
427
420
385
372
358
363
380
395
394
360
341
321
292
271
265
275
266
294
299
308
352
393
433
480
508
525
511
510
481
441
418
397
374
350
352
344
343
364
374
404
438
410
390
388
398
393
400
393
370
361
324
297
261
237
219
184
166
157
152
153
132
126
97
70
46
52
84
116
169
202
205
197
178
189
169
154
145
145
124
104
112
114
136
165
194
191
210
214
185
172
173
131
119
108
101
106
142
156
149
169
179
167
184
187
156
115
124
129
152
231
332
421
480
515
476
433
408
375
390
402
400
406
418
448
453
481
518
523
563
599
607
621
632
637
622
651
663
633
589
550
517
479
460
422
393
382
360
347
332
329
301
284
283
244
237
235
245
249
277
294
287
316
339
355
397
404
355
298
272
222
150
114
72
36
20
27
28
16
32
30
46
71
64
58
60
74
54
58
85
89
107
118
117
99
88
73
26
45
101
122
153
178
208
256
298
351
374
431
504
557
614
676
720
710
718
677
620
584
533
492
475
486
467
446
417
389
398
430
446
426
400
384
376
399
332
295
307
310
290
305
408
524
602
551
529
521
526
568
585
600
539
515
514
527
517
486
448
419
310
230
215
197
225
253
280
282
309
349
346
407
463
451
447
436
393
316
272
237
191
204
220
226
253
286
316
269
281
261
230
244
249
238
240
269
247
237
267
227
197
195
182
133
112
126
95
91
100
78
58
64
71
45
65
74
36
49
60
45
42
67
60
36
72
36
3
0
2
62
150
303
392
388
413
399
401
401
373
334
368
401
369
344
346
298
238
228
204
149
167
193
204
292
389
436
440
439
414
386
439
490
484
494
518
441
386
356
279
227
243
250
253
311
384
405
468
550
562
591
639
664
680
715
695
614
606
586
517
481
466
423
379
377
347
285
277
249
196
180
171
131
107
139
124
104
138
156
160
199
255
243
249
294
274
268
288
275
231
241
259
220
247
258
219
206
230
196
168
186
174
141
186
198
168
183
205
194
202
253
255
244
302
308
288
325
320
279
240
267
296
365
457
455
448
462
447
410
435
496
470
478
498
480
479
510
504
457
484
478
413
400
379
309
268
269
218
168
194
146
48
37
43
28
94
162
194
186
187
100
14
1
0
0
0
89
91
114
178
207
255
383
467
479
564
592
530
531
526
454
406
418
381
305
353
357
346
417
489
486
523
596
564
544
600
560
508
530
504
431
438
461
393
374
395
339
295
323
308
237
247
242
166
161
174
135
113
173
163
152
228
229
207
250
298
266
294
331
289
269
314
314
273
296
306
249
256
291
241
233
260
239
224
271
288
265
304
336
317
343
391
382
377
429
415
379
401
388
331
322
328
252
194
208
180
156
163
162
129
129
146
124
154
216
244
246
274
244
190
158
104
81
127
191
253
300
355
389
416
446
462
473
483
497
512
539
552
570
582
589
587
562
554
554
565
587
590
597
577
555
540
498
455
418
378
332
299
273
238
228
208
201
199
205
208
204
219
223
221
235
237
243
265
278
299
316
324
331
319
320
308
306
292
279
269
245
228
199
181
156
146
135
123
127
129
137
139
140
148
151
167
177
198
205
208
222
225
240
240
242
245
237
218
183
177
185
221
260
293
326
358
373
394
400
416
406
409
393
381
389
407
469
450
419
422
398
387
363
331
318
329
283
222
153
24
3
1
85
176
235
218
209
212
245
313
388
488
584
674
759
825
880
892
902
891
837
778
715
669
622
584
571
551
551
545
537
539
510
487
476
467
462
458
452
437
413
382
357
326
276
250
216
179
155
126
118
88
82
72
72
77
73
83
72
68
59
44
41
24
17
4
0
0
1
0
14
0
18
21
41
53
72
66
71
72
85
84
85
73
58
49
51
47
47
34
35
33
34
52
40
64
83
121
177
216
273
286
289
295
312
369
466
599
721
720
693
665
640
636
679
771
831
783
739
684
595
479
383
324
308
297
285
268
259
277
282
304
343
361
395
407
428
419
409
393
373
354
296
279
278
293
322
336
363
372
386
403
404
415
407
403
386
364
353
336
319
298
278
267
249
249
246
266
281
260
254
248
256
261
263
283
287
328
309
317
319
315
306
290
277
247
216
177
140
104
63
81
83
80
85
95
109
126
135
151
146
153
154
154
154
134
139
142
146
151
149
160
164
158
172
172
188
206
220
238
260
298
321
348
363
366
355
321
310
303
312
348
355
401
420
384
321
205
177
197
246
293
312
282
286
326
381
417
460
488
513
529
536
547
536
537
532
552
606
684
767
824
866
884
866
844
814
814
723
612
523
426
340
240
151
58
19
4
3
9
42
116
198
291
376
448
529
562
595
607
600
587
556
522
464
410
353
291
248
200
174
155
141
121
94
74
50
45
54
64
80
83
133
155
157
165
143
133
125
126
124
91
59
15
4
1
0
31
49
12
0
0
0
6
131
201
274
325
389
448
530
649
684
647
627
601
533
436
415
411
415
413
428
416
391
387
382
412
457
520
539
561
496
438
399
385
368
374
378
389
395
384
383
363
356
339
318
309
286
279
269
259
253
241
237
228
234
248
243
256
270
309
347
370
389
393
411
421
431
437
424
433
420
414
390
379
368
349
353
342
342
324
314
300
274
267
248
230
216
204
205
191
201
180
176
162
149
141
117
117
119
123
142
144
158
164
176
187
185
200
212
229
267
291
294
290
308
335
349
356
361
377
388
391
409
408
417
417
404
392
364
364
357
357
359
345
326
294
279
257
246
259
274
303
307
259
219
192
207
220
274
358
348
351
376
363
334
311
332
330
339
370
416
459
483
547
518
511
506
511
540
555
574
591
607
610
606
634
623
618
613
605
605
590
580
553
534
522
500
488
464
453
429
396
363
316
281
247
218
207
189
198
183
187
187
202
220
224
229
221
209
194
171
175
165
168
163
165
181
188
203
188
184
183
172
174
169
172
168
166
179
184
208
224
234
246
250
269
271
282
279
270
267
261
263
253
254
254
250
248
245
256
248
263
277
279
289
289
286
269
245
223
232
276
331
396
467
520
568
580
593
569
505
454
450
497
519
525
522
474
433
375
344
305
275
266
262
285
318
354
410
451
487
494
507
514
514
541
567
595
610
606
586
519
469
435
403
391
382
397
376
388
384
376
379
364
348
331
324
306
287
278
253
248
234
224
209
182
180
177
194
176
162
151
151
136
114
104
86
75
70
61
64
66
72
81
79
92
86
86
98
96
110
121
141
158
162
172
189
214
224
227
230
214
207
178
149
145
173
220
276
335
400
465
524
574
619
631
641
623
631
591
560
537
502
489
465
440
406
339
283
236
195
155
103
67
8
0
1
3
0
1
104
156
235
262
274
263
231
216
210
204
237
259
304
353
427
434
416
417
394
397
420
445
486
504
530
537
542
539
511
479
445
415
381
345
328
287
257
220
173
125
112
130
137
152
168
168
206
238
287
326
325
340
318
319
311
298
294
267
258
230
217
201
181
178
184
198
224
246
249
245
258
251
259
250
211
176
159
149
121
100
67
38
30
10
15
19
42
73
87
148
185
221
254
292
334
365
410
421
444
456
464
463
449
443
390
346
300
234
185
132
103
83
91
114
126
148
170
181
217
257
255
218
205
209
208
228
236
248
255
261
251
232
216
202
212
260
348
405
473
557
575
599
614
630
653
642
681
726
744
727
705
663
602
572
533
490
445
408
393
365
340
327
332
319
263
237
228
264
293
300
282
255
270
274
302
318
308
304
297
294
266
260
251
223
217
199
193
181
182
179
174
181
173
178
190
195
205
212
245
253
274
301
312
320
327
343
330
340
330
307
287
263
245
214
205
196
196
225
250
291
324
386
438
502
590
642
694
748
781
794
801
813
775
743
684
609
540
469
402
301
189
53
4
1
1
1
1
1
0
0
1
0
0
0
1
1
22
97
161
245
360
458
550
627
685
716
687
636
575
560
593
609
620
663
670
639
602
563
512
474
455
419
397
392
399
368
367
356
327
310
281
251
235
200
166
134
131
121
102
112
126
132
138
163
166
158
169
129
131
121
119
114
120
133
108
106
112
105
108
113
127
116
125
129
117
132
134
136
136
149
170
168
207
217
221
227
227
225
225
242
240
238
247
235
249
256
258
258
260
262
237
221
217
193
187
172
157
148
160
182
171
192
205
213
238
240
203
171
178
198
221
279
318
375
453
480
483
486
503
495
491
493
480
448
441
456
459
487
526
540
560
563
562
523
495
473
432
413
402
390
386
426
448
436
456
427
408
397
378
370
375
395
409
432
483
517
558
573
566
537
504
474
408
374
315
246
182
120
86
91
138
171
177
209
244
260
277
304
316
312
329
326
316
296
300
305
300
319
315
312
311
288
266
241
217
157
99
56
12
0
26
78
131
195
278
343
425
468
488
509
541
547
563
555
549
484
437
365
285
207
123
64
9
2
0
1
0
1
2
0
1
1
3
1
1
1
30
92
136
169
230
277
328
360
419
482
535
527
537
542
468
470
401
337
317
313
332
346
349
379
392
420
449
481
502
514
523
512
524
550
588
655
693
759
782
770
778
752
748
735
734
758
826
802
720
694
648
598
540
498
485
465
448
416
352
297
255
248
272
230
206
175
173
156
156
173
179
199
198
203
200
195
193
187
187
178
170
152
127
127
152
202
211
206
202
213
264
306
331
338
324
342
340
313
309
294
275
264
254
223
149
118
94
84
105
130
179
213
260
311
374
411
435
443
442
460
464
427
374
322
300
278
255
254
230
223
209
186
166
148
132
117
110
83
61
37
9
7
2
0
6
17
34
57
72
102
125
146
172
172
179
185
209
200
199
224
256
286
293
301
314
314
340
381
455
536
560
612
587
534
563
612
682
676
694
703
693
643
582
529
457
401
347
282
241
185
157
102
89
72
53
63
74
105
108
117
139
143
162
159
154
168
166
190
223
231
247
249
269
301
324
366
407
470
454
425
407
404
431
462
533
571
568
569
556
541
501
471
434
407
373
341
323
316
286
252
270
281
296
292
266
288
295
317
335
372
424
385
361
339
352
377
366
376
362
352
320
288
255
198
150
103
66
27
3
3
2
0
9
37
86
92
110
126
161
227
296
380
430
476
516
535
554
564
570
563
549
539
498
482
463
444
440
423
396
366
351
355
389
446
463
502
482
442
402
350
321
279
257
261
253
260
258
272
274
286
304
306
303
283
263
251
233
221
186
181
162
162
156
146
135
114
111
104
106
128
148
183
203
242
274
291
311
321
359
384
412
445
504
558
599
652
676
703
675
621
558
468
437
422
415
406
394
395
387
388
370
339
316
291
282
273
280
273
278
288
283
289
302
313
317
325
332
332
345
337
347
352
360
358
355
362
355
340
317
298
285
261
269
259
255
249
235
237
243
269
269
296
298
308
326
332
347
346
330
319
305
300
262
242
220
192
179
180
243
253
274
296
268
241
206
193
173
177
187
190
197
186
201
224
233
243
237
253
243
254
265
258
267
259
272
264
262
257
245
241
226
219
216
191
188
200
231
267
302
350
385
419
418
420
399
390
380
370
359
334
326
310
276
256
202
145
91
35
4
1
1
0
0
4
1
1
1
53
116
192
232
245
284
308
333
362
402
435
459
496
493
496
497
501
480
476
477
455
436
435
437
447
469
479
482
486
492
475
498
515
541
542
534
520
495
493
484
472
450
459
445
420
413
376
340
301
234
174
133
120
150
171
221
251
246
260
260
280
309
339
365
377
403
404
414
424
430
446
456
475
487
493
511
513
533
541
536
533
535
539
530
534
540
513
518
501
475
458
445
415
381
369
323
273
241
202
168
146
142
136
150
199
243
300
362
404
415
397
389
372
380
387
371
355
335
302
251
230
203
161
148
123
99
65
53
36
18
31
23
23
41
42
52
71
115
152
204
246
273
302
356
377
413
463
468
475
488
516
505
500
503
468
447
441
422
411
402
403
392
386
393
363
362
355
326
306
320
339
302
326
303
238
221
188
147
128
135
113
96
117
104
103
116
124
125
126
163
151
165
197
187
189
223
226
208
218
220
216
220
248
250
222
229
234
236
222
221
208
200
218
209
207
233
250
270
314
362
383
412
459
476
506
538
545
544
530
479
398
369
351
314
326
339
340
329
319
301
241
196
152
100
88
65
25
1
0
1
1
0
24
106
188
248
278
316
356
357
365
386
387
412
429
430
408
399
401
400
421
435
442
449
458
455
446
458
445
441
406
348
303
284
309
373
406
457
471
456
430
397
385
368
371
363
354
347
334
314
302
269
242
266
249
235
233
229
226
238
246
262
271
295
295
307
311
307
320
330
362
374
406
429
434
459
467
487
487
510
514
521
546
552
565
565
564
557
544
536
509
481
447
400
371
341
317
296
307
302
290
286
271
256
249
225
199
164
165
150
150
141
136
127
110
105
90
99
116
127
139
154
175
177
196
213
234
276
312
342
363
404
437
446
463
460
440
435
419
411
398
398
379
361
345
320
289
243
199
163
152
189
222
226
268
259
244
241
230
241
261
280
304
318
341
346
364
374
377
378
356
332
283
258
221
186
164
128
89
49
37
15
4
2
1
20
42
85
114
145
187
231
321
294
268
264
270
285
278
296
301
288
291
293
309
283
278
258
262
271
277
297
308
339
366
381
419
427
450
439
434
431
453
485
496
539
556
527
527
534
532
515
506
468
389
352
309
266
254
316
391
440
494
511
532
584
627
682
736
790
830
843
872
872
878
865
836
773
690
615
517
425
329
246
180
141
117
84
102
84
75
75
57
47
50
64
15
2
1
0
0
13
67
94
132
150
129
122
127
142
132
137
125
108
109
86
53
39
40
38
31
55
71
100
134
177
207
230
272
293
321
354
378
391
405
433
439
467
494
505
513
519
517
508
519
531
520
535
534
522
508
510
518
516
531
519
498
475
443
398
351
314
273
244
256
244
256
281
301
302
333
367
397
419
408
413
422
443
438
412
392
351
307
256
233
195
174
164
152
139
132
137
115
113
110
97
97
97
101
104
144
173
194
234
273
340
408
447
485
473
460
433
388
366
344
328
301
290
260
235
219
183
158
133
104
61
28
8
0
0
1
0
9
1
0
0
0
0
3
1
0
0
0
0
0
2
8
53
58
62
89
111
146
183
212
242
264
273
280
299
307
302
312
299
302
294
294
296
275
272
250
244
244
253
273
260
263
264
296
350
403
421
411
408
414
442
471
498
525
557
562
525
471
420
382
328
311
278
216
181
167
123
79
94
109
132
186
219
250
274
318
330
345
354
372
394
398
382
328
282
254
279
362
434
520
621
740
831
888
941
931
873
774
678
604
554
519
499
512
510
519
524
536
557
520
517
503
466
432
384
364
330
312
306
288
294
286
273
279
258
250
232
220
195
170
156
168
173
173
196
197
212
226
253
281
306
352
365
396
411
424
430
425
423
404
405
384
369
339
305
274
236
227
202
194
198
210
205
209
238
262
309
347
395
447
519
607
688
789
875
956
992
985
943
887
824
764
711
660
636
591
564
528
425
336
303
323
362
394
416
405
397
363
330
273
223
199
160
147
130
123
128
127
104
76
66
52
48
53
79
101
126
136
123
136
163
215
285
337
381
391
363
321
282
262
236
221
202
206
202
200
203
202
207
207
218
208
214
203
206
199
191
187
160
152
129
112
77
62
43
19
8
10
27
34
52
48
44
48
38
54
79
107
140
173
223
253
293
313
325
315
297
294
270
261
242
228
230
223
216
196
215
225
195
179
175
189
196
230
253
272
271
261
256
269
269
276
304
323
345
355
387
383
362
323
286
283
286
305
297
279
287
285
308
322
336
341
357
378
384
421
429
468
494
517
528
515
497
442
382
286
170
59
4
1
1
1
0
0
0
0
0
0
0
0
140
246
331
393
433
486
538
593
653
701
747
772
792
785
750
719
675
631
584
548
504
472
455
438
422
425
420
419
423
428
412
415
414
410
414
415
425
402
400
386
367
365
345
324
291
274
273
256
278
293
265
269
267
280
284
300
318
339
351
330
331
299
288
256
239
248
235
231
222
214
213
229
264
283
337
405
481
537
597
641
658
688
701
678
652
643
632
606
587
539
486
431
379
330
284
243
195
188
198
194
196
205
228
234
254
262
248
224
200
179
166
201
223
238
260
257
250
245
256
248
241
248
244
246
249
251
188
134
107
63
50
62
98
160
220
288
326
358
366
365
380
389
412
406
429
423
385
341
289
245
200
161
111
87
112
124
148
172
194
211
232
250
263
285
309
312
319
331
323
308
320
335
322
338
347
350
346
364
377
378
397
397
415
425
442
443
450
488
498
509
524
499
472
460
466
442
421
414
377
345
328
304
284
277
285
290
335
372
401
430
432
411
386
374
337
290
271
251
246
239
248
234
242
252
239
230
222
207
216
238
292
313
335
367
369
381
384
391
410
447
476
498
524
526
521
523
518
518
521
502
502
523
452
346
271
260
261
267
261
240
230
203
162
183
201
226
213
184
125
85
43
4
2
2
37
83
137
164
169
161
177
189
205
229
242
257
265
289
302
310
332
329
338
340
347
356
361
381
394
399
406
385
368
323
293
268
244
206
162
121
84
57
58
80
113
120
142
169
214
272
361
456
451
443
427
420
449
490
542
571
581
576
584
604
597
588
534
478
396
319
296
296
283
257
241
216
184
157
120
125
135
147
174
210
279
300
347
372
389
419
449
477
492
504
494
483
470
441
415
377
349
313
284
256
215
181
144
132
117
122
118
130
137
153
172
169
178
182
204
209
205
172
151
152
127
100
67
41
13
4
1
1
10
28
48
71
90
115
124
148
167
200
266
346
404
432
456
421
383
338
299
287
268
269
260
262
280
278
316
366
411
460
460
435
383
351
317
278
257
236
230
220
198
160
80
12
0
1
0
0
1
1
0
0
2
41
86
130
148
179
191
195
197
197
233
242
267
301
334
348
352
365
351
330
316
298
279
272
307
324
355
348
404
434
444
476
503
534
546
555
583
612
644
649
652
652
662
673
677
676
656
631
603
566
547
504
473
441
418
406
389
397
379
362
351
335
339
336
352
358
344
330
301
292
287
278
280
291
301
315
350
385
403
434
448
465
464
480
479
477
489
498
461
448
427
406
342
344
380
414
457
476
443
401
361
307
261
218
177
161
153
167
164
179
194
206
243
266
301
288
300
340
390
444
470
483
473
476
450
426
386
330
302
264
274
296
335
388
417
447
457
456
479
499
512
478
470
471
468
477
461
441
428
418
399
364
337
291
262
262
253
272
291
286
237
197
170
134
117
88
93
126
156
155
148
170
180
205
237
258
263
246
243
219
191
171
136
121
102
89
59
22
7
0
0
0
0
0
13
54
73
116
157
179
206
228
256
264
296
335
380
468
589
650
510
421
357
313
321
321
326
332
338
360
386
375
351
341
352
351
342
315
238
131
85
85
72
115
175
170
173
221
228
208
224
242
234
238
240
235
224
216
187
138
97
60
81
110
147
166
165
164
168
214
271
299
316
366
413
442
472
491
498
514
511
513
504
514
524
535
564
570
581
581
589
580
560
568
545
545
559
539
507
476
445
409
398
387
349
339
325
323
294
300
286
253
266
268
267
258
270
253
254
285
290
302
327
362
378
398
401
386
381
385
356
337
337
336
328
341
332
338
351
358
366
375
390
374
345
347
322
273
227
199
154
129
138
118
113
138
156
181
223
289
297
314
374
416
474
531
556
542
545
535
478
436
388
327
292
289
250
193
197
222
263
313
332
347
391
437
432
455
524
552
594
628
636
629
661
720
688
658
648
551
475
407
328
218
171
132
109
126
123
107
85
115
106
93
88
45
16
2
1
0
3
0
1
8
32
14
6
17
17
1
0
0
1
0
0
1
1
0
5
22
80
117
150
195
253
267
292
338
327
315
316
338
449
541
490
479
560
651
697
593
539
502
473
486
429
350
345
338
332
351
415
428
440
474
465
415
359
342
279
269
267
219
144
105
87
75
129
159
168
222
252
259
263
280
271
275
350
354
281
237
212
159
145
138
72
51
70
89
115
204
285
326
432
529
554
600
659
661
675
737
738
667
644
607
519
482
492
438
389
360
265
172
157
158
197
278
400
383
396
444
438
406
345
293
208
200
161
54
16
15
4
0
0
0
11
85
110
55
67
78
51
79
134
130
178
304
370
372
467
517
520
593
658
578
592
679
688
572
548
475
391
412
407
339
350
346
306
324
393
379
360
404
371
328
370
371
300
299
347
331
369
440
417
382
401
372
292
308
319
251
263
306
279
272
333
332
289
346
365
330
361
404
368
375
426
386
356
391
370
324
342
354
292
297
329
273
255
283
272
231
269
272
225
255
281
247
247
287
265
243
296
282
246
276
286
245
249
286
247
236
285
251
230
249
226
184
181
173
97
99
136
165
207
284
328
290
306
295
270
315
335
332
355
407
398
393
423
397
381
406
416
391
387
408
374
367
380
360
320
293
277
226
205
185
141
130
116
87
69
74
86
99
135
157
172
189
217
228
227
230
206
205
179
184
199
249
314
367
387
395
406
406
415
414
391
409
448
515
584
666
732
776
825
834
814
804
776
734
672
614
550
512
497
450
414
386
361
338
328
319
280
265
256
232
216
211
202
182
173
137
97
102
82
66
52
52
45
43
53
56
53
51
58
79
108
139
155
182
210
235
265
279
307
315
332
328
308
315
317
318
319
312
303
276
249
219
195
199
230
272
289
337
315
285
280
254
254
247
263
276
281
287
278
289
284
288
291
288
300
299
324
345
366
397
401
407
416
435
461
481
506
518
532
518
509
500
478
472
453
453
441
442
454
453
459
444
443
434
425
428
433
450
455
451
445
413
389
362
344
330
320
327
315
308
306
304
305
303
316
319
319
335
339
353
375
369
388
382
379
371
352
339
303
277
249
214
190
166
153
143
125
146
117
118
127
135
140
137
144
171
164
192
203
215
235
218
227
213
183
162
170
131
100
79
78
71
95
95
114
130
140
149
158
196
213
229
279
339
438
491
531
583
566
539
461
384
291
201
141
91
58
14
0
4
5
35
58
82
112
131
172
190
222
252
277
295
303
316
313
308
288
265
224
177
153
124
114
109
129
164
208
262
309
356
416
474
553
632
710
789
828
849
841
821
777
726
678
625
560
512
462
429
394
372
360
338
334
321
313
304
292
294
282
276
248
246
246
244
245
229
224
215
184
181
151
139
111
91
75
70
55
31
37
43
56
76
97
128
150
182
213
260
329
387
453
507
550
587
592
590
565
538
503
450
374
276
224
175
164
166
186
233
261
333
420
522
649
719
704
664
617
563
508
487
468
452
430
422
398
384
381
356
348
333
333
330
343
374
385
412
430
456
470
498
509
498
479
459
439
402
359
322
295
278
246
234
222
213
203
192
207
214
233
255
260
280
281
304
312
311
305
298
299
295
298
295
288
279
259
251
232
226
221
213
215
203
210
206
203
205
195
201
199
210
217
222
234
233
253
260
274
281
286
280
265
266
278
298
316
340
375
402
451
493
517
532
540
563
581
604
630
631
622
615
611
587
565
531
504
487
468
479
481
469
425
328
303
321
390
478
533
529
490
453
466
493
480
483
477
471
493
524
570
609
589
570
533
516
472
410
343
241
155
55
29
41
44
96
153
208
260
307
355
379
411
429
431
434
424
405
376
359
331
303
267
224
183
142
123
94
71
56
33
29
16
19
9
4
8
3
1
0
0
0
0
2
1
1
0
2
1
0
4
12
34
44
56
82
88
110
129
149
150
155
171
169
169
170
161
164
164
184
192
215
232
236
259
270
276
284
276
268
227
195
153
130
105
102
104
111
130
145
179
202
227
251
234
185
180
227
260
294
325
354
385
405
409
415
422
430
436
447
450
454
459
483
548
624
672
720
737
735
708
698
659
637
621
640
661
661
646
600
582
546
539
556
547
538
516
489
442
382
330
256
199
166
159
166
155
145
117
111
104
91
85
75
76
71
76
77
79
90
91
89
76
80
67
52
36
11
2
4
0
1
22
32
41
49
48
76
101
122
116
118
125
125
142
151
155
152
131
105
59
72
92
117
150
191
232
192
175
172
174
188
204
244
288
348
392
416
424
400
385
376
406
414
420
396
393
414
442
477
497
512
525
527
559
562
584
596
618
645
666
668
633
589
513
454
383
308
241
176
166
164
208
281
367
428
489
525
534
526
500
473
476
469
498
521
545
565
555
588
593
596
573
538
517
467
417
333
268
203
153
141
127
138
155
186
203
263
340
358
390
435
443
454
446
444
436
438
435
438
432
431
443
445
456
468
473
498
516
526
531
534
526
513
502
479
468
450
442
431
415
409
392
405
411
418
427
435
447
447
453
449
450
446
447
446
432
443
430
410
399
371
345
271
246
226
227
222
204
195
177
175
176
183
192
174
170
151
143
135
126
123
107
130
114
124
120
122
141
165
210
253
291
326
357
411
447
460
490
537
607
635
633
620
567
502
421
356
316
272
236
182
160
137
117
102
89
86
76
93
92
109
111
130
124
132
133
125
125
121
111
126
131
139
136
142
130
110
102
95
112
145
178
193
207
235
244
237
223
216
206
194
190
170
176
174
177
194
206
222
227
239
253
242
259
279
282
298
315
321
332
363
380
403
412
424
430
428
430
389
324
274
230
205
172
145
101
38
3
0
0
0
0
0
0
0
2
44
96
143
164
152
151
172
214
237
253
264
261
307
394
472
509
536
556
557
586
610
640
661
671
667
662
667
655
645
612
576
543
507
507
500
495
486
459
429
375
359
345
355
383
401
427
425
442
422
394
368
337
319
290
275
254
249
244
231
233
229
248
239
259
267
271
311
291
308
321
323
327
319
330
315
310
324
325
341
353
378
395
422
452
457
477
485
481
478
479
481
472
486
471
456
446
413
377
334
311
275
241
224
195
168
149
150
139
137
153
171
220
214
219
230
258
276
266
269
241
204
180
145
122
90
98
94
105
141
158
201
226
234
231
245
270
298
351
394
427
468
544
598
592
624
650
639
634
613
596
551
531
508
450
396
304
219
189
181
157
171
215
236
243
250
233
234
251
308
332
351
408
376
349
314
261
236
211
187
147
136
127
88
90
90
86
82
79
84
93
128
152
182
218
231
235
237
249
230
227
214
199
184
177
168
142
145
147
171
195
238
271
293
356
410
473
532
581
602
607
646
643
649
653
638
602
574
552
486
443
362
268
205
180
160
129
138
137
93
44
31
6
2
0
0
0
0
0
0
1
95
152
214
278
309
337
355
381
397
445
471
466
464
481
487
490
527
554
565
591
604
601
585
591
574
561
566
552
552
548
534
495
453
423
373
355
343
347
339
346
342
326
335
306
252
236
241
262
276
274
261
242
223
176
145
135
140
143
143
173
170
181
192
198
220
208
225
219
236
258
275
299
326
347
357
368
388
391
409
408
415
405
405
405
424
455
472
457
444
397
349
309
284
233
219
222
211
202
192
187
174
180
183
160
134
95
83
84
88
100
101
122
139
159
183
197
206
207
215
217
211
231
223
225
259
314
358
405
467
490
507
535
556
575
592
612
625
643
661
666
683
661
640
598
536
487
503
491
464
410
387
379
380
373
359
360
357
403
416
403
386
372
365
339
319
269
221
191
169
139
113
104
80
133
177
178
170
153
142
107
105
105
140
183
207
230
171
133
134
125
80
19
5
5
2
1
1
0
0
0
5
41
101
149
209
269
360
446
473
487
493
487
443
419
382
331
295
249
178
88
86
71
20
70
110
164
221
279
315
341
408
447
529
602
638
677
680
650
601
582
552
510
503
475
426
381
308
248
227
208
192
164
146
67
4
5
0
18
175
305
425
579
599
607
688
599
670
581
399
404
283
177
11
0
1
2
0
1
1
95
146
175
154
125
135
184
242
282
337
354
357
384
388
385
373
360
310
282
287
273
295
308
293
286
276
285
276
292
297
284
296
303
304
274
280
274
289
363
402
448
509
535
496
443
436
405
376
360
353
337
329
316
292
298
309
320
291
273
260
269
308
315
339
358
381
409
417
414
369
329
309
275
233
210
202
195
229
284
313
364
410
427
407
398
401
396
418
450
499
561
617
648
661
705
724
740
771
791
801
793
795
774
754
744
714
689
664
658
608
573
548
502
496
490
467
435
417
412
390
392
378
334
332
318
297
277
263
247
219
228
225
215
226
226
217
208
203
166
138
127
96
88
90
101
101
132
149
156
201
244
257
216
217
211
193
197
175
156
146
123
98
132
153
97
131
172
172
145
155
199
214
219
218
187
191
165
159
125
135
132
111
101
72
13
2
1
1
1
0
0
0
0
1
0
0
0
0
0
1
0
96
185
282
336
416
471
556
617
675
722
778
830
825
827
835
798
809
834
725
592
569
659
554
449
492
549
512
444
496
507
496
457
427
466
430
362
332
345
284
279
339
311
240
240
262
305
308
325
353
408
497
567
579
573
580
541
530
534
475
399
365
347
311
257
199
114
47
2
1
0
1
0
0
5
32
71
106
134
203
233
313
360
391
409
408
409
419
419
417
416
419
416
438
423
376
380
408
400
311
316
345
387
453
485
475
450
448
448
453
465
470
459
408
358
319
297
262
222
238
270
294
290
230
168
203
256
258
220
264
288
285
274
344
388
355
331
312
345
369
401
426
521
691
792
633
613
507
472
576
918
858
729
564
444
450
310
204
261
366
372
401
417
370
302
209
138
69
16
2
3
1
7
0
0
0
4
3
0
6
0
3
11
98
161
215
235
255
282
306
334
367
411
414
434
453
456
472
506
509
511
567
566
480
383
352
344
332
350
358
369
369
366
383
419
463
496
551
545
487
461
408
325
255
236
214
87
136
120
83
68
26
2
0
2
0
1
52
120
219
301
381
423
438
444
440
451
474
500
538
561
547
502
471
422
362
326
285
244
215
192
157
127
124
112
103
99
84
33
3
2
0
9
29
45
24
23
47
74
118
148
180
198
235
255
272
289
285
268
267
284
253
230
203
188
188
188
179
165
182
213
229
282
330
388
444
493
508
519
546
543
564
580
591
596
567
552
518
497
485
476
459
449
437
414
415
392
382
373
349
341
333
325
309
276
272
254
234
224
202
205
219
225
219
227
261
272
292
305
315
324
325
365
390
401
360
339
353
373
385
370
369
381
363
362
350
333
298
279
281
284
337
371
394
411
381
328
278
256
204
182
159
147
117
105
98
93
87
83
84
71
65
72
58
69
90
125
161
208
265
265
286
297
328
343
356
375
368
371
376
370
378
385
384
392
393
409
403
446
463
469
473
472
479
467
458
447
434
435
425
424
412
413
422
414
430
409
402
398
388
388
371
366
348
342
333
310
313
304
310
305
297
302
285
283
269
252
267
276
291
293
302
292
288
293
286
293
289
294
291
285
286
275
288
286
274
287
281
280
269
273
263
259
264
256
258
251
263
263
274
281
273
283
276
266
248
243
254
278
336
365
398
399
364
330
281
257
233
227
217
207
191
141
136
148
166
194
205
217
207
227
249
274
291
283
294
293
290
294
297
297
283
265
261
252
253
232
231
232
191
156
134
107
75
85
114
134
170
204
252
287
324
346
363
378
375
383
379
384
404
417
428
426
437
452
477
479
461
467
459
472
453
454
442
434
438
428
434
439
444
453
437
428
410
393
376
355
340
334
331
320
318
308
307
311
315
310
297
292
274
293
298
281
274
273
271
279
276
282
278
281
273
282
281
278
276
264
263
253
236
205
196
191
193
248
281
312
353
360
337
315
309
296
307
311
316
314
310
310
290
301
279
251
224
198
172
169
191
199
216
227
237
251
258
289
307
321
334
361
352
352
367
358
357
361
373
401
393
398
387
393
399
402
409
405
408
412
408
417
402
411
403
396
402
397
406
409
399
384
370
372
368
370
362
351
351
339
339
331
325
317
319
324
295
283
266
263
257
267
269
271
263
260
272
264
270
281
273
279
284
285
286
274
277
264
265
252
258
273
258
271
260
269
266
268
264
260
259
251
268
263
269
283
