264
299
354
299
266
345
316
253
322
334
265
286
354
276
273
349
316
265
325
341
262
312
352
283
286
357
309
266
332
328
261
296
339
251
241
275
223
196
292
337
292
385
433
352
312
358
297
256
329
311
257
301
345
261
284
346
295
262
332
319
248
313
330
254
278
351
275
260
331
300
245
307
329
241
278
327
267
249
328
283
230
301
303
238
272
336
257
259
331
293
254
330
337
269
326
373
315
310
390
332
309
364
372
295
344
382
294
323
378
333
294
366
342
285
324
361
295
297
370
313
283
347
337
267
316
347
281
294
362
309
270
350
324
268
317
353
271
293
358
296
275
344
322
258
338
334
261
310
355
287
283
362
300
267
342
328
266
312
350
271
307
357
268
290
350
310
260
339
325
261
312
349
279
288
358
300
276
337
329
261
314
349
272
289
350
295
266
339
313
267
305
354
260
289
356
293
270
339
321
253
318
341
267
289
354
291
272
338
310
252
304
340
246
287
338
271
256
333
304
251
309
343
257
289
358
284
275
341
318
257
322
335
260
298
347
279
259
321
265
197
239
271
215
303
385
348
371
410
349
260
320
314
252
283
340
275
272
345
299
255
322
327
251
297
338
274
272
341
299
247
324
314
244
285
333
248
252
325
269
233
295
296
222
278
314
240
252
327
267
242
317
298
264
303
344
267
298
379
312
293
370
346
295
352
385
311
323
388
323
301
361
345
276
336
359
279
311
363
303
288
354
322
277
329
359
269
307
365
291
291
353
329
267
334
345
275
298
366
286
280
343
322
260
318
342
261
296
347
286
275
347
314
259
329
340
266
294
366
285
285
353
313
266
332
345
266
307
359
290
274
358
307
267
328
338
263
303
351
274
281
342
309
259
331
327
261
311
349
278
281
350
299
262
328
335
260
304
348
280
277
352
308
261
348
332
273
304
361
285
290
353
314
269
336
337
262
314
357
281
268
343
274
220
262
274
207
304
388
322
370
429
352
278
337
311
245
291
334
262
272
350
289
259
322
325
241
305
342
268
279
344
293
255
332
312
255
294
346
244
271
333
280
245
309
297
233
281
313
246
249
330
270
240
307
302
232
291
338
268
288
358
320
285
355
359
294
343
387
299
321
391
331
296
364
355
278
337
366
294
303
371
315
285
353
335
274
330
366
280
309
367
314
285
359
337
274
337
360
286
300
373
301
284
350
333
272
325
359
279
303
365
311
274
354
328
268
323
351
275
301
364
307
298
345
335
259
325
347
274
293
364
293
276
349
318
260
320
359
259
296
357
297
264
349
317
267
330
348
266
295
362
291
282
348
317
257
325
342
270
286
346
273
242
296
251
217
289
369
303
367
437
353
314
352
315
245
312
322
261
287
354
284
277
345
313
259
324
340
260
298
352
286
267
349
302
250
319
320
253
291
345
261
275
337
289
244
318
313
238
285
326
255
262
343
272
254
321
323
259
316
354
288
312
378
324
299
382
356
300
346
383
306
332
402
310
313
375
342
287
351
365
284
327
369
306
295
366
320
275
338
339
278
304
365
277
299
356
318
274
342
344
264
319
363
277
294
364
305
277
340
340
253
312
359
280
293
363
311
269
349
326
271
311
356
275
286
358
304
276
346
330
263
330
353
269
291
362
300
278
348
329
268
324
352
274
304
357
305
274
346
322
269
318
350
275
291
358
295
278
341
322
261
319
344
263
295
357
293
272
348
314
274
313
341
263
294
351
291
277
350
326
265
333
342
275
296
364
292
283
346
347
271
327
341
259
289
317
232
213
302
278
267
360
388
315
346
377
272
272
331
291
246
326
322
260
297
352
275
275
347
300
260
322
326
252
297
344
274
274
350
284
261
324
327
249
292
348
260
278
340
303
253
347
319
253
295
340
278
274
349
292
263
325
341
260
323
372
296
310
387
337
297
377
360
299
341
388
303
318
383
330
295
362
352
284
341
365
303
307
373
314
289
346
339
275
335
364
285
301
364
313
276
349
331
278
315
359
285
296
363
305
277
339
342
263
318
349
284
284
361
299
270
346
320
263
313
351
267
297
363
298
273
350
318
252
325
343
263
291
360
288
277
348
322
261
326
343
267
297
359
284
274
350
309
262
323
347
258
297
357
273
278
346
312
259
327
328
271
292
358
286
270
347
315
263
323
339
263
301
345
291
271
353
309
262
320
336
260
293
353
282
278
338
305
251
325
331
262
295
362
285
279
357
310
265
329
336
259
308
350
283
281
352
304
247
307
271
191
243
303
250
309
392
362
329
360
341
253
299
328
275
274
349
299
259
330
320
255
298
345
268
279
342
298
253
329
315
251
301
334
260
267
344
279
255
318
307
235
290
332
250
267
330
279
241
321
294
238
287
335
243
280
345
294
272
343
333
274
343
368
305
327
394
327
310
377
352
295
351
373
292
319
383
316
289
366
335
286
334
354
281
297
369
295
296
350
324
264
323
351
266
302
359
287
275
362
312
265
324
338
262
296
356
276
280
346
304
261
335
325
260
315
350
281
277
355
286
269
331
332
260
307
347
269
287
348
300
264
340
318
258
314
340
275
286
354
286
271
340
325
253
316
342
262
289
345
284
260
341
310
253
313
333
266
288
359
285
279
344
316
251
325
336
265
293
352
284
274
351
305
259
318
342
246
292
341
276
278
341
300
259
318
325
264
290
355
279
279
345
306
262
321
328
260
299
347
281
277
352
302
252
307
286
213
227
291
236
287
381
366
347
398
357
263
301
336
264
264
348
284
252
325
322
252
295
337
260
275
338
290
254
328
312
246
310
331
256
268
335
269
253
310
298
228
284
314
234
254
314
262
230
308
285
233
283
326
260
277
344
289
273
352
338
278
349
374
313
327
396
327
308
384
349
300
346
367
284
330
376
295
294
361
332
273
342
348
281
309
377
278
284
360
319
274
337
350
263
311
353
292
284
356
311
266
333
331
266
299
356
272
289
345
309
262
328
331
265
305
352
285
277
356
306
267
328
336
262
303
357
281
280
350
316
259
332
326
258
301
354
275
278
355
296
265
330
334
249
305
345
276
283
352
299
252
339
321
260
293
348
263
283
346
297
260
333
320
254
319
353
267
286
361
298
276
336
327
266
314
356
275
287
351
303
261
331
297
223
247
276
217
258
381
329
350
428
392
298
327
342
259
275
344
286
259
338
311
254
301
337
261
284
349
284
265
337
313
246
313
326
257
277
347
270
254
330
293
245
292
321
229
272
321
263
245
316
286
232
297
311
248
275
347
277
285
354
323
283
345
370
297
337
390
333
310
392
346
301
355
371
289
326
386
304
306
369
337
279
346
344
276
306
372
294
290
365
313
271
333
345
266
312
358
283
287
359
310
273
346
338
266
307
355
276
292
356
306
276
333
325
260
308
345
281
281
369
301
273
335
328
258
313
355
264
287
352
301
262
339
321
263
308
358
260
288
346
291
261
332
334
262
317
347
278
283
355
294
269
340
327
261
311
350
271
288
339
291
221
284
250
202
290
364
313
364
437
339
296
334
316
239
297
329
263
284
348
271
266
334
308
257
303
335
257
285
360
286
271
336
315
250
322
330
258
301
345
282
275
353
293
261
317
314
242
297
338
246
273
334
288
253
334
307
261
317
363
286
310
385
322
307
373
358
289
356
377
300
324
383
323
296
380
345
285
334
361
281
319
374
303
290
354
327
267
333
342
274
298
373
276
283
356
309
261
314
338
259
307
357
289
270
356
312
268
328
344
263
301
360
284
284
349
309
257
327
333
258
292
352
280
277
353
301
266
330
338
258
313
349
284
287
356
309
270
336
338
271
315
357
279
293
357
311
279
338
338
267
319
345
283
287
361
301
268
335
329
262
314
362
286
301
360
306
273
348
331
266
317
356
293
293
366
295
269
314
273
187
262
311
270
326
411
373
334
368
327
257
301
341
263
292
352
296
270
346
322
260
314
344
265
288
361
289
275
340
319
254
308
336
258
288
338
278
253
335
301
244
297
327
256
286
335
277
255
320
307
238
303
325
259
284
356
300
283
367
335
289
351
381
293
333
392
313
309
384
343
289
359
365
291
318
385
304
297
363
329
272
339
346
276
307
353
291
282
352
306
271
326
336
266
305
355
279
283
347
311
262
334
336
261
306
353
285
280
357
307
267
328
336
257
307
355
287
283
356
307
263
334
343
261
299
355
278
289
354
308
258
332
327
258
310
353
280
280
351
285
264
330
324
256
299
343
262
284
350
289
257
340
316
251
302
344
275
290
352
291
272
330
323
252
306
339
266
288
353
306
272
348
326
268
316
349
271
295
361
296
275
355
326
251
314
338
257
250
294
222
217
306
318
291
360
409
320
317
351
285
255
334
305
250
319
332
261
286
349
280
279
341
312
253
316
336
254
290
346
284
262
340
299
253
302
323
248
274
327
257
258
321
288
229
297
307
239
265
333
250
258
329
297
250
321
343
263
317
371
306
307
389
341
302
371
369
294
330
386
295
307
373
313
283
353
345
274
338
360
284
290
360
293
281
347
333
264
310
353
277
295
354
309
269
348
327
270
316
353
282
290
363
304
277
338
332
257
314
346
267
291
353
297
267
347
315
260
316
348
268
292
351
285
275
341
321
254
314
330
261
288
347
283
262
347
291
252
319
330
259
301
353
278
282
346
306
256
330
327
261
296
343
272
262
328
257
198
245
262
213
305
396
334
369
415
330
264
326
303
252
287
344
264
270
340
298
258
324
322
253
303
344
264
271
343
289
254
319
330
253
286
334
252
262
326
273
228
306
289
228
272
313
239
249
329
265
245
316
303
237
326
343
275
309
369
322
300
381
354
306
356
386
310
335
397
309
311
366
344
279
337
350
286
299
364
302
283
352
319
265
323
349
272
311
361
302
282
353
325
268
326
349
272
299
363
280
287
350
318
267
320
338
259
298
350
283
271
356
305
261
325
327
259
294
352
272
284
355
306
271
344
351
268
311
348
282
281
358
301
271
334
331
265
306
354
267
279
328
261
197
267
268
239
330
395
369
367
413
328
268
324
314
234
291
336
264
273
341
296
257
333
316
254
297
345
263
277
345
288
254
325
313
243
294
331
257
259
337
253
237
305
284
224
270
309
230
258
318
265
244
317
299
250
318
339
283
308
383
315
313
385
359
312
367
393
297
344
385
326
306
380
335
283
357
349
282
314
373
290
298
363
321
280
346
340
273
318
367
290
290
372
308
276
340
336
269
312
360
278
291
351
310
265
346
329
265
314
352
280
290
360
303
274
341
335
263
314
356
266
294
359
301
269
345
332
264
314
362
262
300
357
288
273
344
327
262
313
342
278
287
361
291
257
311
280
194
245
298
263
322
409
388
345
404
341
262
306
337
251
280
353
285
267
335
313
250
317
332
267
278
346
284
272
337
311
256
305
335
255
288
342
281
251
330
299
247
298
320
249
265
332
265
252
317
311
231
303
320
250
288
355
309
288
368
333
288
347
379
294
334
387
317
306
375
345
284
357
359
289
314
379
300
294
370
323
272
341
341
266
316
358
289
285
361
306
267
343
341
270
309
365
271
289
355
308
268
338
328
258
308
348
281
280
359
304
271
337
331
269
312
353
275
291
357
310
272
346
329
258
315
350
269
288
372
297
274
338
332
261
311
343
272
291
360
303
275
355
322
269
320
353
265
299
362
296
280
344
319
259
319
324
241
245
285
223
220
337
332
313
396
408
305
315
352
276
266
338
298
255
329
323
258
291
351
284
278
345
300
258
318
330
246
299
352
280
275
343
295
254
329
318
254
295
342
260
271
337
291
250
325
317
247
299
339
259
273
352
287
289
341
349
277
332
380
304
319
384
334
295
373
350
292
339
374
304
312
384
321
295
354
344
274
331
359
285
298
364
304
274
344
321
265
313
353
260
296
355
301
272
347
325
261
322
345
276
291
365
292
282
347
318
261
317
340
260
289
343
287
264
342
306
260
313
336
262
289
356
274
283
342
318
264
329
338
271
299
367
296
286
356
313
270
321
345
270
308
356
286
275
348
317
262
331
336
273
298
357
288
285
353
315
268
326
344
260
304
355
299
284
355
313
266
332
341
270
310
367
262
289
353
297
266
332
331
245
300
341
275
280
364
302
273
343
329
268
315
358
278
299
356
310
273
351
333
266
309
340
244
223
295
244
250
341
363
306
379
404
300
313
347
297
263
341
321
263
306
345
271
289
355
295
268
332
332
260
317
340
266
282
358
280
262
335
307
254
305
335
249
279
343
276
262
327
306
239
311
316
255
273
333
287
263
347
303
263
324
351
275
322
383
302
310
384
342
298
371
372
303
329
383
309
304
363
334
283
341
356
277
314
370
287
284
360
310
270
334
346
261
307
364
275
283
345
309
261
334
334
266
307
353
283
280
360
304
270
326
338
263
310
350
275
291
349
308
261
339
325
260
306
348
275
282
355
300
277
328
328
260
303
346
281
288
354
294
266
335
320
261
305
348
272
290
355
297
271
337
327
256
316
347
280
288
358
292
262
349
321
257
312
351
258
293
353
293
273
349
311
253
320
332
263
296
354
285
277
348
306
258
318
335
247
290
345
289
270
348
313
270
320
340
276
301
364
291
282
346
312
259
329
338
261
284
327
237
198
284
241
238
336
376
304
370
400
295
279
338
296
248
324
323
265
291
355
274
272
344
300
258
318
327
251
298
345
271
271
339
294
251
318
311
246
281
330
252
266
333
273
238
299
296
226
281
316
239
257
328
277
251
323
308
256
309
356
278
310
378
330
306
374
358
294
350
378
291
321
382
313
296
372
329
296
338
351
275
312
362
296
286
366
314
268
337
342
274
303
365
286
289
353
316
270
330
337
266
305
350
286
286
357
304
267
329
337
255
298
352
277
283
344
302
258
332
330
262
308
347
277
274
352
293
263
329
337
250
305
348
269
285
351
297
262
343
315
260
311
343
269
287
355
295
274
334
323
253
320
336
270
292
352
295
269
342
310
268
301
349
256
293
354
294
272
338
324
259
315
338
275
279
349
286
266
340
321
262
315
359
274
301
358
288
275
350
315
263
323
345
257
286
353
248
237
278
242
190
281
346
301
368
448
364
316
357
309
252
299
330
252
283
344
276
272
324
305
247
309
326
258
281
346
280
268
337
301
249
302
320
255
276
328
245
244
316
276
225
291
298
244
258
330
238
253
327
299
252
318
337
248
300
363
301
292
385
342
302
371
372
305
348
395
319
326
383
335
286
358
347
278
326
368
288
299
371
316
288
342
344
277
319
358
288
291
362
318
294
344
334
272
312
360
282
292
360
310
269
340
335
260
317
351
273
295
359
298
273
350
325
269
318
349
267
297
355
298
273
353
322
260
326
342
275
297
360
294
280
354
322
263
327
349
264
298
349
293
269
352
311
268
331
341
265
292
357
270
275
344
310
249
320
334
262
297
353
288
274
357
307
268
320
344
261
303
359
287
281
350
321
265
320
317
240
245
296
212
231
351
346
317
419
419
305
331
351
277
265
341
296
256
332
330
260
295
351
250
279
346
294
255
320
322
263
298
339
274
273
343
287
259
317
317
249
285
336
260
265
327
281
246
312
304
234
283
326
260
263
342
289
266
336
337
274
329
373
297
325
389
334
300
379
360
291
338
379
300
312
383
316
297
359
343
270
339
355
286
301
370
305
283
349
326
265
319
355
259
300
353
294
272
345
322
265
323
342
275
291
362
294
280
345
333
260
325
346
279
297
357
302
273
352
322
265
319
348
268
294
359
291
276
346
320
258
324
343
268
293
367
286
282
350
309
264
326
343
263
314
353
289
283
350
313
263
336
329
267
302
353
276
294
353
296
271
327
328
257
331
316
262
306
344
268
301
363
290
282
354
328
264
325
344
278
290
358
287
275
342
311
243
281
271
190
244
320
304
315
409
372
310
345
338
250
282
346
269
275
338
299
248
317
320
255
291
344
256
269
341
289
255
314
331
239
287
333
270
273
338
296
259
324
320
253
284
340
264
271
336
296
252
320
325
254
299
341
286
280
364
320
280
349
355
291
331
386
305
321
384
340
297
373
366
291
337
376
307
308
382
323
296
358
352
274
328
363
292
299
361
314
277
348
330
273
312
356
280
297
362
294
279
338
333
267
326
355
282
289
364
301
274
344
326
269
310
353
269
300
358
295
276
346
325
258
324
347
275
294
360
289
277
348
322
267
322
354
273
302
359
299
275
354
317
267
327
345
278
295
361
287
274
346
310
257
326
338
268
297
353
288
272
351
310
264
316
341
265
297
355
287
275
334
310
260
326
340
263
296
357
289
278
353
314
265
324
346
261
304
355
285
266
336
287
201
250
269
218
280
385
319
350
420
342
268
324
317
245
291
340
278
267
348
296
249
316
328
253
285
340
261
272
332
291
249
315
314
251
282
335
265
263
333
286
252
302
311
244
283
327
255
251
324
286
236
303
311
246
277
342
268
282
353
334
284
357
365
292
343
382
315
316
391
326
301
365
352
281
330
378
281
303
364
317
277
356
333
274
324
356
282
296
366
299
278
333
331
259
324
364
277
291
355
306
274
351
320
261
315
347
273
291
356
298
298
336
324
258
319
343
278
292
354
287
270
345
319
263
313
347
261
294
354
292
268
342
330
254
311
340
263
288
352
285
274
346
312
258
320
335
259
303
346
284
274
348
306
260
331
331
260
290
360
261
282
342
307
257
323
328
257
313
341
281
271
352
305
265
327
336
266
295
351
282
283
345
303
261
336
329
256
293
331
231
216
276
229
214
322
366
305
386
421
306
283
349
287
245
332
310
254
297
340
260
276
338
300
251
322
318
244
307
332
263
273
341
278
256
316
292
242
282
316
239
261
320
260
236
310
286
229
287
310
244
263
335
275
260
329
316
255
326
355
284
320
381
325
310
390
347
303
357
378
299
328
401
309
302
372
336
270
344
349
282
316
375
287
290
366
324
275
338
350
274
314
361
299
292
355
316
264
338
329
270
295
362
279
279
347
313
269
331
337
257
306
351
286
278
355
307
265
330
346
255
303
360
286
291
350
314
259
332
331
266
305
360
279
279
356
303
280
328
333
256
308
355
274
282
350
304
254
338
318
254
303
350
269
285
349
295
267
332
334
258
314
349
284
292
360
292
280
348
331
276
314
358
276
297
350
294
249
303
267
189
259
325
297
331
440
390
340
376
320
248
300
340
243
284
351
295
257
343
309
256
306
340
262
281
350
279
270
337
314
248
306
325
255
277
352
262
248
326
281
233
287
308
233
264
318
263
251
319
296
241
308
319
256
292
363
289
294
373
338
295
358
378
303
341
392
313
315
387
345
293
356
359
299
318
381
298
301
366
325
278
344
348
271
317
362
295
288
369
306
276
341
342
262
313
364
276
293
355
314
267
344
326
265
316
355
283
290
359
303
280
333
332
263
311
349
277
291
356
296
260
336
320
266
297
354
273
287
372
302
271
336
328
258
314
341
280
291
358
307
275
344
317
260
305
346
260
289
354
287
276
347
328
263
326
349
277
291
367
293
279
348
326
261
319
349
259
277
316
222
205
294
290
281
362
412
347
346
380
284
270
325
296
241
321
326
253
290
344
286
269
340
299
262
309
334
256
285
344
274
271
333
306
246
313
318
259
277
340
272
258
333
296
242
301
326
244
283
329
277
261
338
305
253
328
337
275
314
382
301
308
382
340
300
364
371
278
340
378
312
305
380
327
286
364
346
282
324
365
284
302
362
317
268
336
327
263
309
344
279
283
359
289
273
332
331
265
317
353
284
292
359
315
277
343
331
274
315
356
284
291
364
312
279
338
337
257
317
356
269
292
360
295
276
350
323
262
311
355
267
292
356
301
278
347
331
269
325
353
284
293
362
300
279
347
326
268
328
348
271
296
349
295
276
347
317
258
319
333
273
290
357
289
286
353
317
269
327
361
271
303
358
297
278
357
316
266
327
324
237
237
284
217
237
343
342
309
406
403
293
309
353
274
270
340
293
260
319
327
255
300
358
279
283
344
302
256
333
323
261
295
347
272
273
341
294
256
315
321
250
287
328
260
264
333
285
238
312
300
249
282
335
259
272
335
297
264
333
343
267
332
372
311
314
392
336
299
368
366
296
335
385
286
318
378
325
285
363
342
274
325
363
285
293
366
298
281
347
328
258
314
350
270
300
354
301
276
347
323
266
322
344
274
301
360
298
280
339
325
262
318
342
273
289
353
299
267
344
317
259
312
348
268
293
354
277
272
348
319
256
324
345
275
288
359
281
271
344
312
261
321
341
262
300
361
280
275
350
310
260
320
336
269
292
357
285
278
338
311
254
318
335
263
289
344
285
272
350
313
266
325
347
265
302
356
287
281
345
317
250
325
341
260
284
345
256
243
283
236
189
263
345
282
346
433
355
306
356
303
243
310
313
256
285
348
270
270
339
302
251
321
329
245
295
342
277
265
341
294
257
307
315
247
277
334
259
261
319
286
236
299
300
234
265
315
254
240
317
282
237
296
318
245
291
347
289
288
367
337
290
365
386
304
334
394
318
320
378
336
286
342
355
276
321
366
297
288
360
314
275
345
348
279
309
360
283
294
362
314
264
338
335
260
317
355
284
288
361
288
272
331
329
257
304
344
270
286
349
293
265
338
322
255
306
348
282
288
362
301
274
335
331
259
307
344
273
288
355
311
263
340
321
262
305
348
267
288
353
290
263
340
315
252
312
338
270
280
353
291
270
341
319
257
315
345
263
293
344
291
264
338
314
264
324
350
266
294
359
299
281
340
327
264
325
346
272
303
356
292
262
331
274
198
234
271
218
318
392
357
374
412
354
270
322
324
241
282
349
262
264
333
292
254
308
329
249
287
338
276
262
339
297
249
309
319
251
277
339
262
260
321
284
229
298
304
226
267
318
236
237
325
271
235
305
318
247
297
366
286
296
365
334
291
371
363
307
340
395
326
320
386
339
299
353
372
285
326
366
304
295
371
325
283
345
342
285
316
369
288
298
362
319
274
346
351
269
320
359
288
289
364
311
279
338
332
262
310
359
278
290
351
304
266
349
329
264
317
356
279
294
366
297
277
342
332
262
322
351
276
298
363
300
273
343
321
273
309
348
265
291
353
293
282
339
320
258
316
338
279
297
366
301
281
349
325
270
319
360
263
302
361
287
274
347
317
247
289
302
204
213
295
252
292
380
417
346
383
380
270
287
340
273
251
337
305
257
311
337
262
291
349
284
270
338
313
248
322
321
258
284
343
274
266
330
293
252
297
321
246
276
327
267
249
321
290
237
297
316
244
277
343
264
270
339
325
268
338
364
296
329
386
325
308
389
347
300
360
373
293
325
393
285
310
376
323
282
353
344
273
321
354
288
284
360
301
271
339
329
259
309
351
275
298
350
305
268
345
337
266
311
360
265
289
362
304
275
337
334
260
314
346
274
283
348
290
280
335
323
262
309
351
268
287
355
300
273
339
332
261
319
350
281
289
370
306
282
344
332
261
319
351
273
300
354
305
271
348
324
268
321
349
276
286
362
294
276
333
318
262
315
340
271
294
353
301
271
349
318
266
315
347
276
291
358
303
271
330
318
228
267
259
210
232
330
305
303
401
373
296
319
336
248
270
338
269
264
338
304
249
313
325
259
283
355
273
266
332
306
248
314
328
257
292
346
285
263
338
301
251
308
327
252
282
343
270
272
335
299
248
318
323
259
297
352
285
282
366
326
287
355
369
294
336
390
326
323
394
355
295
371
367
305
336
393
306
315
388
332
296
356
352
278
327
360
294
292
362
315
276
349
334
272
308
360
283
295
355
322
280
339
337
259
310
347
283
283
358
303
274
339
331
270
313
354
274
291
347
309
268
348
329
266
311
354
270
286
358
301
277
341
329
262
315
355
282
291
355
302
269
346
324
263
316
349
273
295
357
304
278
346
337
264
323
349
281
293
361
305
277
349
321
270
314
359
259
298
355
285
276
345
322
262
321
339
266
286
355
289
268
343
316
255
308
344
260
299
356
298
281
358
311
264
328
337
266
297
356
281
285
348
306
256
311
299
202
231
281
242
269
395
348
338
379
359
271
290
341
271
270
340
307
259
329
323
257
289
345
278
269
342
300
260
316
329
250
295
339
271
267
335
295
245
312
315
245
268
329
243
258
324
274
238
306
301
231
283
320
258
263
340
297
266
345
337
280
329
381
304
325
389
332
304
375
365
295
343
378
293
308
383
311
292
350
338
275
320
361
290
297
358
313
270
346
330
268
306
355
279
290
360
302
270
340
333
263
316
351
277
287
364
298
269
350
318
266
311
350
272
295
358
301
270
340
323
258
325
339
274
284
351
292
276
343
312
261
309
343
266
291
343
296
269
343
314
265
315
339
273
287
355
292
275
338
322
261
315
341
272
290
350
290
265
344
313
265
312
336
266
291
351
274
273
344
308
255
322
328
266
289
346
278
267
347
300
259
316
334
251
293
343
273
272
344
295
253
334
338
263
294
352
277
271
343
303
259
320
332
267
302
339
269
246
295
225
197
273
313
287
339
439
359
330
360
312
252
312
324
252
299
345
279
271
343
294
259
320
329
252
315
342
275
272
343
298
246
315
310
247
276
340
241
264
320
280
240
294
303
245
270
317
261
245
322
282
248
307
310
247
288
368
286
314
363
339
293
367
372
296
343
399
320
312
392
331
298
359
355
284
328
364
286
305
365
315
278
355
332
274
318
360
288
295
368
301
282
346
334
263
318
350
279
284
355
289
273
343
312
263
310
348
273
295
351
299
283
344
329
255
321
342
283
290
361
296
278
349
322
268
312
353
260
294
354
295
269
349
323
258
318
339
269
286
358
290
272
340
321
258
328
342
267
293
349
276
272
346
310
264
315
335
266
292
355
286
283
336
313
256
319
330
269
294
343
284
268
348
312
266
320
351
255
305
356
292
281
353
326
265
330
342
270
292
350
263
244
291
239
199
284
347
298
367
451
346
319
364
303
256
318
346
258
292
349
275
275
340
312
255
323
328
253
291
343
276
266
345
279
251
305
321
254
279
333
265
260
318
285
230
303
294
231
270
318
249
255
330
284
253
317
323
247
310
359
289
309
377
332
293
377
359
305
346
388
309
326
400
334
302
369
352
281
342
360
295
311
378
314
287
361
328
277
325
359
276
304
362
304
284
346
329
269
327
353
275
295
365
300
288
347
321
269
317
347
269
301
355
302
274
353
319
266
333
335
267
295
358
279
282
349
309
259
325
333
261
305
355
293
279
354
312
265
326
335
261
299
363
269
285
348
307
260
333
330
253
299
345
275
282
345
300
271
327
333
256
298
346
281
280
349
309
262
325
322
269
291
353
279
281
350
309
265
330
337
259
307
350
279
270
352
299
261
327
322
239
268
301
200
212
295
297
291
385
402
322
349
356
277
272
340
288
270
325
324
254
299
348
258
285
345
301
251
325
309
253
290
337
268
275
343
288
259
319
319
248
298
335
267
266
332
286
252
321
301
238
284
330
247
269
339
289
259
330
335
266
326
361
300
302
384
313
301
366
360
291
336
385
292
325
384
325
293
364
346
280
338
367
294
303
371
305
290
349
328
267
327
346
268
300
354
297
280
347
314
289
320
345
273
297
362
300
280
350
330
265
325
345
284
295
357
295
273
350
319
265
314
346
261
293
353
281
273
344
315
259
323
330
270
295
364
289
283
344
315
265
327
344
269
310
354
298
282
356
315
272
327
342
263
298
359
287
291
352
320
260
327
335
269
294
354
296
276
355
310
276
323
337
269
296
357
277
285
351
324
265
333
337
274
299
355
283
279
350
304
267
335
340
267
314
356
296
279
357
317
269
338
342
265
307
362
280
281
334
276
201
267
275
230
316
389
333
361
407
324
283
323
325
261
305
348
269
286
347
301
267
333
327
260
307
344
283
279
356
298
270
329
324
253
302
339
268
277
340
285
247
323
311
246
286
332
253
266
335
280
252
317
310
242
304
336
271
290
375
312
291
371
352
300
348
386
309
335
391
335
309
368
354
292
343
366
300
307
379
311
299
350
330
273
319
354
281
304
358
302
275
347
316
264
332
348
263
294
357
282
277
343
319
262
314
338
260
298
353
289
274
358
304
267
329
336
261
298
352
276
281
348
309
258
336
325
259
305
346
278
277
351
299
270
327
330
255
311
350
267
285
351
306
267
338
322
269
305
344
277
283
354
298
273
332
331
258
312
344
275
288
352
300
269
335
314
263
305
354
257
293
351
287
270
334
320
252
315
333
267
280
354
287
267
333
302
259
308
336
262
293
355
301
275
342
333
265
322
340
274
292
355
287
285
344
320
252
306
314
186
219
284
250
273
377
368
345
370
364
271
287
340
267
267
339
316
254
320
333
264
289
353
286
268
338
313
252
305
327
252
281
333
272
253
327
292
239
301
312
234
278
331
253
250
313
282
232
298
303
235
271
322
265
258
335
303
262
327
347
283
322
382
320
319
382
352
300
362
366
305
330
388
296
296
372
326
284
336
351
275
315
363
301
283
358
321
267
332
340
273
300
365
287
284
349
320
264
326
345
254
302
356
286
276
356
303
266
330
331
264
304
357
282
289
350
314
264
333
346
264
303
356
272
281
358
302
267
329
334
254
301
347
271
284
350
301
271
333
317
273
309
341
273
285
355
291
274
338
317
260
318
340
273
301
343
281
270
346
315
261
322
335
266
292
359
279
276
341
302
255
328
334
259
287
343
280
271
352
305
270
328
347
266
297
352
283
285
345
313
262
326
326
264
288
334
251
228
274
233
219
316
363
309
399
430
335
298
348
305
248
311
313
254
287
346
268
273
338
300
249
321
328
246
294
348
276
255
346
295
256
309
318
238
278
326
245
258
318
281
229
300
296
232
267
325
242
252
336
276
252
315
328
254
313
360
297
311
377
339
305
369
368
309
342
391
310
320
384
334
302
356
351
287
329
363
305
295
372
318
281
347
345
270
316
366
284
295
357
314
274
353
340
264
310
355
283
288
366
301
274
339
332
263
316
351
279
291
356
305
269
348
327
263
315
356
279
290
357
293
283
337
326
263
315
341
278
289
358
300
275
347
318
267
309
347
273
292
352
286
273
342
327
257
314
340
276
289
356
289
276
338
307
271
312
342
249
291
350
282
280
351
319
261
326
335
269
301
359
283
286
350
312
266
329
332
251
288
312
225
211
291
266
290
371
402
360
368
392
302
282
340
286
251
324
317
255
298
336
275
268
347
295
258
321
321
249
293
339
260
275
341
290
249
327
305
247
288
335
242
266
334
276
245
308
303
233
279
312
250
256
334
285
250
329
315
265
316
363
305
319
380
327
303
381
367
294
351
380
311
319
387
305
302
362
352
276
321
361
276
305
361
308
282
350
329
274
316
348
277
291
364
300
283
341
330
260
320
345
273
296
361
298
273
350
328
270
311
356
274
299
363
303
276
345
324
265
320
344
271
289
352
290
275
351
318
264
310
345
260
300
354
297
277
348
321
271
324
342
281
296
361
290
283
350
320
271
323
346
273
305
357
302
275
357
314
269
330
344
272
297
362
289
286
348
325
257
330
335
266
302
361
296
288
368
316
275
336
358
261
309
366
287
289
367
311
260
322
313
231
233
285
222
246
360
341
327
401
389
284
313
349
261
281
351
307
264
329
322
261
297
356
260
283
347
298
263
328
334
253
293
344
275
269
346
297
249
316
327
247
289
340
264
267
332
291
241
312
308
249
282
336
265
270
347
294
268
336
348
275
344
376
321
317
390
345
302
373
366
305
337
387
310
318
375
337
295
352
352
297
324
366
306
290
366
314
284
333
337
273
310
357
283
289
351
318
269
336
331
258
307
361
282
287
361
305
271
333
341
260
314
349
282
283
358
305
265
340
324
266
305
356
276
286
349
302
267
335
332
252
311
349
278
292
357
301
266
339
334
261
306
360
259
294
352
295
267
330
325
262
309
345
282
283
358
300
276
332
327
260
308
347
275
288
346
301
265
337
321
261
301
351
270
283
350
296
269
332
321
255
318
344
280
303
359
295
275
345
320
264
317
351
267
297
351
275
255
307
250
184
259
291
272
324
407
367
340
363
318
250
298
328
254
286
343
286
270
336
304
255
306
330
269
282
348
284
270
334
315
257
315
329
263
278
343
276
255
329
297
247
298
324
238
273
327
260
255
318
293
238
309
312
254
290
347
277
309
364
320
297
361
363
302
349
386
308
321
390
340
297
371
348
288
336
371
298
312
375
312
297
348
334
276
325
352
285
295
359
304
277
348
320
276
314
349
275
295
354
294
272
341
320
258
320
337
274
289
353
287
275
348
318
262
326
347
261
297
350
288
273
349
314
264
322
334
266
291
368
268
281
348
319
260
329
338
268
302
350
291
275
350
308
268
322
336
269
296
354
284
282
348
311
258
325
327
267
298
354
274
281
349
305
283
312
335
262
300
344
282
271
344
305
259
333
342
262
295
363
272
280
348
314
263
316
334
260
301
341
277
254
308
246
190
253
292
260
325
408
366
345
380
314
254
319
325
253
289
342
275
267
344
292
261
315
328
253
299
338
275
276
354
297
252
314
312
250
274
337
245
267
322
280
243
293
301
225
269
312
252
245
318
272
256
307
306
253
284
345
281
300
366
328
287
360
363
299
345
387
321
316
390
339
299
359
359
287
329
368
293
300
378
319
275
350
336
272
313
361
287
292
370
283
284
347
337
265
320
347
275
290
355
299
264
343
322
263
305
352
257
289
353
280
271
334
322
257
312
343
280
292
355
296
279
340
317
268
311
348
273
294
349
299
265
341
322
256
309
338
268
285
356
291
272
337
316
258
309
341
264
294
354
290
267
347
311
265
321
347
265
289
357
287
277
347
314
252
318
337
255
299
351
293
279
352
313
268
318
346
267
298
351
291
278
345
318
267
318
316
255
252
288
217
218
322
322
297
399
431
327
326
351
292
262
328
298
251
317
328
258
284
351
273
275
344
320
255
318
324
250
292
333
268
261
340
283
253
310
332
225
276
320
264
254
314
276
232
300
292
234
276
324
261
269
337
288
268
331
344
278
330
380
320
330
394
339
307
381
363
310
339
388
306
317
382
327
290
351
352
275
326
361
294
299
376
315
281
354
335
278
318
362
279
304
362
307
278
346
334
262
323
344
282
296
362
298
281
337
326
266
313
348
275
293
353
306
269
344
322
267
314
349
279
287
362
298
283
343
336
263
322
348
264
298
355
295
273
348
317
269
321
343
264
290
360
268
280
342
308
252
326
335
258
298
343
275
278
353
309
271
332
342
267
306
355
287
292
350
312
282
334
330
268
302
342
268
255
302
236
204
282
339
300
368
448
360
336
367
305
256
322
307
252
294
339
269
277
344
291
263
330
320
250
304
342
263
275
350
286
257
329
305
249
294
337
250
272
333
277
249
315
297
235
292
311
251
261
338
267
252
321
304
250
309
344
277
312
367
324
308
377
353
301
350
388
299
325
390
324
308
366
349
288
340
363
299
316
373
313
286
357
319
279
325
364
263
320
364
285
287
345
328
256
320
345
266
285
360
291
275
351
312
268
320
349
266
300
351
297
274
351
314
263
326
330
268
292
365
287
281
345
322
267
328
343
257
295
350
287
272
344
310
268
318
342
272
303
360
289
284
339
316
260
323
337
271
290
359
281
278
350
313
263
316
340
268
306
354
292
284
354
321
264
334
339
274
301
363
279
288
360
313
269
328
326
240
261
279
221
219
325
323
306
398
404
313
315
359
272
274
331
302
261
333
335
253
315
346
277
270
349
297
260
316
329
246
284
344
254
273
326
284
241
314
311
258
282
337
267
264
355
291
251
308
319
244
291
335
270
269
347
304
263
342
351
287
321
379
303
319
386
343
302
373
362
301
340
376
310
311
381
322
295
354
349
282
320
366
284
312
356
316
276
343
329
272
314
354
285
286
357
302
280
331
331
263
313
345
282
289
359
304
276
345
323
271
309
358
276
292
354
299
275
340
334
258
316
346
272
287
361
289
272
349
321
267
310
349
268
300
366
299
281
358
329
263
327
348
266
303
367
281
286
360
309
270
330
336
254
313
355
291
284
356
317
274
352
334
266
300
357
281
290
354
308
268
329
334
263
305
346
279
278
351
301
267
338
342
268
310
366
277
293
358
309
276
342
331
263
311
352
281
281
357
284
245
292
255
201
258
324
297
331
409
369
306
348
320
254
306
335
266
287
349
288
268
325
317
254
307
337
270
280
347
296
266
334
312
257
298
340
250
276
340
285
256
323
308
236
295
314
253
263
330
270
249
320
293
247
299
328
251
293
354
287
293
357
334
288
358
369
308
330
406
304
315
384
348
291
350
363
286
330
371
298
300
366
322
276
341
336
277
300
360
283
290
349
315
270
335
336
272
307
351
292
283
356
307
270
332
333
277
300
355
280
288
349
313
263
335
333
265
306
349
281
281
358
300
264
327
333
258
305
354
277
286
347
303
262
341
318
262
303
348
269
280
354
290
271
333
322
249
316
346
262
285
357
291
266
340
309
262
308
344
266
292
347
296
275
333
320
262
313
337
274
289
358
295
274
341
317
259
314
342
262
290
343
293
263
338
312
253
301
332
267
281
357
289
272
340
331
261
320
345
272
292
356
298
272
348
313
257
295
304
199
218
293
231
272
365
366
337
386
357
277
294
338
277
269
336
307
254
305
338
258
285
344
289
268
330
306
253
327
330
254
278
340
277
258
314
296
235
286
310
237
265
328
262
233
305
280
223
278
312
233
262
332
273
252
326
314
251
327
353
288
317
390
321
316
386
350
302
356
381
294
328
378
317
295
371
328
277
340
353
285
305
370
280
296
360
325
274
336
347
276
316
364
281
288
356
308
275
329
331
269
301
359
281
283
345
311
265
332
333
265
305
349
291
282
356
306
272
332
344
260
305
353
277
287
352
310
263
336
322
265
302
349
275
279
355
294
265
340
327
253
308
341
274
283
350
300
261
334
334
263
298
353
258
289
347
300
278
331
324
261
312
341
284
275
353
296
268
336
319
263
314
349
270
289
346
299
262
341
323
259
312
350
271
283
363
302
272
331
326
259
311
352
280
289
354
305
263
333
298
223
247
274
199
256
363
325
344
428
390
293
320
343
242
271
338
286
262
332
307
256
302
337
255
289
341
285
266
330
324
256
304
326
263
274
343
276
261
319
293
232
285
311
234
262
318
271
237
318
284
234
293
323
249
273
350
288
279
349
329
275
345
382
293
337
394
335
313
390
346
302
353
370
294
328
376
315
300
363
337
277
344
352
287
311
371
303
296
360
324
279
330
355
270
324
361
300
290
353
321
280
340
342
274
298
361
282
286
353
315
271
329
342
273
314
358
285
288
359
304
270
343
333
271
309
354
277
292
352
301
269
335
324
261
316
347
278
284
360
297
273
343
317
265
312
349
273
293
349
299
270
341
323
263
306
340
275
289
353
291
274
330
316
258
307
343
272
293
352
314
273
348
320
265
310
346
271
290
354
298
273
338
327
246
294
304
210
212
292
251
275
375
379
344
366
374
260
282
332
271
256
337
305
250
309
324
262
278
346
275
262
326
307
246
303
331
255
286
341
286
265
334
319
252
301
328
257
268
337
273
263
321
302
238
298
320
240
271
338
275
262
337
308
267
319
359
276
317
379
326
304
370
352
291
348
374
305
316
390
317
304
365
342
287
336
370
282
311
376
307
281
355
326
269
323
344
273
296
357
290
276
340
320
261
318
333
269
293
354
282
280
350
314
272
315
347
270
295
355
297
284
337
325
258
316
334
272
285
352
292
278
339
319
266
314
353
261
296
355
307
275
352
327
270
319
352
276
297
366
293
286
344
349
272
328
354
269
300
364
291
277
348
317
267
315
348
262
298
365
301
284
355
331
262
327
346
277
291
360
293
280
350
328
266
316
348
259
300
355
302
286
357
325
272
335
348
282
303
372
302
291
351
324
270
320
329
232
243
293
221
233
358
342
316
402
394
292
306
354
274
278
350
311
263
331
327
262
302
348
280
280
356
295
264
333
330
264
310
350
263
280
341
303
262
325
316
260
289
341
268
268
338
297
257
313
318
250
288
332
273
268
346
309
266
339
346
280
324
386
312
319
389
343
305
371
371
298
340
380
313
307
390
331
295
353
357
273
325
370
293
302
354
323
271
340
337
266
310
361
271
288
372
300
274
335
329
258
305
345
287
286
353
310
268
341
327
270
301
356
285
287
352
315
268
332
331
257
307
344
275
282
356
303
266
332
327
265
305
353
272
289
355
305
265
340
324
263
314
353
269
287
362
295
274
337
324
258
313
346
269
286
345
299
270
335
316
265
303
349
271
282
354
292
274
335
328
257
308
337
280
281
353
299
264
339
319
265
299
340
262
288
347
294
275
342
334
261
316
344
273
286
359
285
275
345
320
265
315
342
239
257
282
216
206
303
309
288
371
405
322
310
366
252
268
337
296
260
312
324
251
300
334
273
275
340
296
260
323
313
260
292
338
270
272
339
292
250
311
305
243
285
328
255
252
328
278
240
300
296
230
271
327
247
264
330
289
248
327
320
270
312
369
320
307
393
334
305
358
366
294
343
376
310
315
384
324
287
353
337
281
313
366
287
297
360
312
281
332
336
270
313
352
287
284
361
304
273
333
335
265
301
352
279
285
349
310
263
333
325
261
303
342
282
283
357
297
270
325
333
253
305
349
271
286
347
301
260
337
320
247
296
346
265
276
351
294
266
344
323
253
312
342
277
289
349
296
265
336
319
268
301
346
267
293
349
292
271
332
314
263
308
337
278
278
354
292
270
333
321
257
305
342
265
288
346
299
261
333
318
252
309
345
271
292
364
292
281
347
322
260
321
344
266
294
351
296
271
347
299
238
267
269
190
232
321
308
318
411
407
316
347
334
270
275
333
279
265
333
305
264
305
329
254
284
338
285
264
336
309
258
314
334
252
280
342
270
264
326
289
242
294
318
229
273
321
248
235
317
276
238
300
308
245
278
348
272
277
348
319
275
351
367
296
339
390
320
318
390
341
304
356
364
289
327
375
313
307
366
328
272
339
339
276
306
368
300
292
360
317
279
334
348
275
310
359
299
280
353
317
261
335
333
266
296
358
275
282
352
311
262
323
333
261
305
350
288
281
366
305
273
340
338
270
307
359
285
290
355
315
265
342
330
265
307
354
271
287
355
305
272
325
335
261
307
347
277
290
353
309
267
333
323
266
301
360
262
286
350
297
258
324
324
260
301
342
278
283
360
301
270
343
328
268
324
361
275
293
355
307
273
336
305
229
255
275
216
250
379
335
345
436
394
305
325
351
249
278
335
288
259
332
309
256
305
335
264
281
343
285
269
326
313
253
304
329
258
281
341
296
261
324
296
251
285
321
247
263
325
266
248
312
293
237
301
313
249
265
341
286
271
350
328
288
335
374
300
331
396
333
323
388
355
297
365
371
299
329
387
310
310
378
326
291
347
357
278
325
373
280
299
363
320
278
350
336
271
312
362
275
297
364
312
277
335
334
263
325
345
278
289
356
301
282
349
319
266
310
347
273
292
352
296
269
337
339
256
316
338
279
292
354
293
276
347
331
274
315
355
256
298
349
294
281
349
318
266
317
342
272
290
360
286
278
343
318
259
320
335
267
291
348
294
271
354
313
267
321
347
274
298
358
293
289
343
325
265
319
346
267
278
332
244
205
281
262
254
338
386
340
368
398
311
270
335
306
244
313
333
256
279
349
276
267
333
312
254
311
332
254
278
339
284
260
339
293
250
304
339
248
282
347
262
268
331
310
247
307
323
259
278
341
279
267
335
303
263
314
342
278
307
367
308
307
375
354
293
357
370
303
325
388
318
310
376
347
287
346
366
286
319
373
307
289
368
322
275
332
343
268
296
364
284
280
346
320
256
329
332
262
301
351
288
275
354
305
273
329
339
269
311
353
279
295
349
312
270
339
328
270
316
355
266
281
353
299
276
319
335
267
306
351
287
282
353
315
266
337
332
270
302
356
288
294
355
307
270
333
335
260
309
349
286
284
355
306
272
336
328
258
295
358
269
292
351
300
260
339
323
257
307
344
276
282
355
302
280
345
332
268
315
358
280
299
365
310
275
349
330
276
311
344
248
244
288
221
218
321
349
299
364
420
333
306
357
295
260
333
317
261
299
348
267
287
345
300
264
333
320
260
308
342
274
277
352
290
265
334
308
250
298
333
255
275
331
279
248
328
295
236
297
316
251
269
336
271
264
330
307
263
313
347
280
318
370
325
306
386
350
310
359
385
298
331
389
313
311
371
347
284
344
363
278
315
371
307
282
373
312
270
324
352
270
301
364
291
278
349
311
260
329
336
275
298
357
290
280
357
306
266
323
339
266
306
349
284
282
346
314
266
326
329
272
294
352
283
280
350
306
271
319
341
259
310
346
285
274
346
304
261
328
331
266
294
354
279
283
348
309
261
328
339
258
306
350
280
281
361
297
266
330
325
262
305
345
271
290
350
300
266
342
324
261
307
346
262
276
346
288
273
329
327
267
314
349
277
292
351
307
277
351
324
269
313
351
267
288
350
276
243
277
248
193
267
334
287
337
428
352
301
354
314
255
301
334
262
286
347
285
270
333
307
244
311
324
262
282
345
284
266
338
299
255
298
325
251
284
332
273
258
323
291
249
298
305
249
262
324
259
251
320
284
238
298
318
244
291
346
293
285
368
343
291
357
373
299
332
392
316
317
377
341
292
354
358
285
317
372
303
294
373
317
279
343
345
273
309
359
286
285
351
308
262
333
324
266
296
343
283
286
350
305
271
321
336
251
303
348
285
276
346
308
265
327
329
255
294
357
263
285
348
304
254
322
328
254
305
343
280
276
351
304
267
326
334
259
293
350
270
284
340
296
259
332
324
262
299
346
279
278
356
293
268
334
328
261
308
347
278
284
345
306
266
334
321
265
298
348
277
283
351
300
266
320
326
250
307
334
277
290
358
310
271
332
324
271
306
357
277
289
349
309
265
334
326
251
289
313
220
202
287
258
274
368
392
360
379
387
278
286
336
284
257
334
312
254
304
335
265
276
359
282
267
331
319
251
306
340
253
281
340
282
249
323
294
240
287
325
230
263
310
259
247
303
287
230
288
313
252
273
340
274
256
333
310
261
313
364
289
319
381
336
310
383
368
296
348
381
308
333
390
317
300
360
342
281
335
362
284
308
368
311
283
363
327
277
336
352
281
315
368
287
287
346
323
266
322
343
274
294
357
295
269
347
317
270
312
352
273
303
355
301
277
342
326
264
318
345
281
289
365
292
278
345
328
265
318
353
268
292
352
297
269
344
318
260
312
350
274
286
359
290
283
342
324
262
318
337
269
293
356
292
271
346
310
261
315
345
256
290
353
288
272
342
317
258
331
336
273
303
360
292
287
352
316
277
327
348
263
308
347
277
254
298
243
196
277
321
307
351
448
361
332
369
308
257
309
325
249
294
341
279
267
344
299
257
324
323
261
293
346
265
274
342
297
255
324
310
245
292
329
262
263
334
271
243
303
293
232
275
316
242
270
327
276
251
326
308
247
306
345
287
305
382
325
307
370
364
292
349
381
308
331
388
333
300
374
349
296
339
366
292
307
377
303
295
357
342
271
333
356
268
299
366
287
277
351
318
268
315
342
269
297
357
298
281
347
321
261
321
340
272
293
360
295
301
344
318
264
318
344
260
294
354
283
273
345
315
267
318
341
272
283
349
290
272
337
327
255
317
349
276
295
357
282
274
346
311
265
311
347
258
293
356
280
271
343
312
257
321
337
274
279
346
281
272
339
319
266
319
344
268
306
347
295
283
347
316
271
321
338
277
292
356
283
276
320
270
193
257
300
246
318
392
363
346
397
329
266
308
321
253
286
343
267
273
334
304
250
317
325
254
278
337
272
264
344
295
253
317
326
251
294
338
273
279
336
298
265
322
318
254
282
340
266
268
330
289
263
307
325
261
296
347
295
286
368
334
290
356
363
317
337
401
300
312
380
344
297
357
369
285
331
381
305
295
378
320
285
346
341
276
312
363
283
295
357
311
267
341
327
266
313
358
271
291
355
305
282
334
339
268
305
358
288
302
359
313
273
342
330
278
301
353
286
283
352
307
276
325
334
262
309
346
272
284
353
311
273
343
330
272
303
364
267
295
358
308
268
336
329
263
315
346
284
283
359
303
272
337
326
266
310
350
275
293
352
297
276
337
325
263
317
339
275
280
351
292
267
334
320
264
304
340
264
282
346
314
272
341
332
266
309
354
278
287
353
300
276
336
329
256
306
330
237
225
284
238
231
346
351
310
382
416
289
306
349
284
262
334
318
246
311
332
268
279
348
287
268
341
332
259
305
335
264
287
347
294
254
345
316
250
297
331
246
273
341
257
261
319
304
242
297
319
240
273
332
274
254
335
303
260
316
350
270
304
379
322
316
378
358
298
364
379
301
333
386
321
306
378
334
292
342
353
282
317
373
296
298
368
325
267
339
333
270
310
354
287
288
354
309
274
318
337
267
308
351
285
286
352
321
273
332
333
271
301
355
285
287
353
306
267
330
328
256
311
345
277
284
352
306
271
337
330
279
305
356
258
293
359
303
269
344
329
262
314
341
279
287
366
297
268
347
317
261
315
352
253
296
351
294
276
340
314
263
319
344
275
285
355
306
271
336
310
255
308
337
270
291
344
273
265
337
305
267
319
343
270
292
357
290
280
341
327
259
320
346
272
292
354
285
252
298
236
195
251
314
279
331
414
369
319
358
307
241
314
319
261
286
346
275
272
340
297
258
308
334
245
289
340
279
267
337
298
257
311
316
257
277
335
267
263
320
288
246
301
310
232
269
321
253
249
326
287
252
302
315
248
299
345
286
285
359
337
283
358
372
303
330
397
310
313
387
331
301
351
365
288
320
379
303
299
372
332
277
346
341
278
304
365
275
287
351
302
264
328
337
262
304
347
281
287
350
303
268
327
330
270
298
355
281
289
343
309
264
329
334
283
302
353
290
280
356
313
268
328
342
260
306
355
282
286
350
314
256
330
320
259
293
345
275
277
352
295
265
326
323
250
303
339
275
277
356
299
260
340
329
260
299
356
278
285
349
300
270
332
332
251
311
347
264
274
344
295
267
320
322
264
299
341
271
278
339
302
273
337
328
262
306
346
284
282
358
304
270
334
337
259
306
352
273
276
317
247
189
269
274
265
336
413
363
358
396
309
278
318
319
230
292
333
266
277
344
286
257
329
310
258
297
340
265
281
345
286
265
321
310
247
297
320
258
260
328
274
248
308
286
232
275
316
237
256
321
274
247
317
307
245
304
340
276
292
372
312
300
371
361
303
356
380
308
331
387
317
301
373
344
288
341
359
288
307
372
305
297
355
335
278
338
359
283
305
370
305
285
355
321
276
322
351
267
297
357
295
278
340
328
259
331
338
280
291
349
298
276
345
315
268
319
351
272
310
364
281
281
356
320
265
328
336
270
293
357
287
279
341
313
255
316
335
262
297
340
290
279
347
312
269
321
336
271
301
355
286
292
339
314
260
320
334
264
300
350
290
270
348
305
270
322
340
254
297
354
282
282
346
323
261
331
332
266
305
354
288
283
367
295
280
305
282
194
233
294
245
312
394
391
349
398
349
266
292
330
256
268
343
288
264
321
318
251
305
336
271
276
344
296
260
334
322
260
299
333
254
270
336
274
260
314
302
231
286
307
237
252
319
261
235
315
292
243
288
328
248
279
348
293
282
357
344
287
356
382
304
327
406
317
316
377
353
299
345
376
296
330
372
320
295
366
336
282
338
351
291
303
369
305
293
347
335
271
326
352
274
303
359
308
275
355
329
275
318
344
272
294
364
290
285
351
320
264
333
338
273
300
352
295
278
359
313
267
321
349
257
305
352
293
288
354
326
271
326
339
276
295
359
281
276
343
315
271
316
336
260
293
342
291
271
339
314
268
319
333
247
283
352
280
268
331
304
251
321
343
263
302
353
286
274
357
313
272
324
345
259
301
357
286
282
337
294
213
264
258
204
262
373
305
342
426
359
296
321
327
248
288
334
273
286
337
296
252
321
322
258
286
348
274
276
340
297
258
317
325
247
298
331
284
346
283
262
341
306
258
301
332
247
280
342
268
263
330
306
248
322
339
270
299
358
306
294
366
337
290
347
376
302
334
379
326
315
378
343
299
350
369
291
314
375
308
298
361
333
278
323
351
278
303
358
302
275
351
321
276
316
344
271
294
363
291
282
348
329
264
331
356
274
304
367
304
282
358
330
273
319
349
264
305
355
294
281
344
320
262
323
340
260
295
366
291
282
352
318
278
324
346
277
311
357
300
288
356
321
272
333
343
278
294
365
293
285
351
325
269
327
346
263
312
355
296
277
356
315
266
324
340
262
294
357
278
279
346
309
258
320
325
262
291
351
285
285
364
311
274
336
342
264
310
357
287
287
360
315
263
331
318
251
258
288
214
222
305
318
308
370
405
318
326
356
266
262
345
295
260
320
323
256
297
344
275
279
338
319
258
328
327
259
297
348
262
275
350
290
259
317
315
248
292
337
248
264
334
285
242
321
296
246
289
331
257
273
344
289
272
336
346
272
339
367
305
321
387
340
312
386
370
303
345
388
306
330
389
314
298
360
346
274
332
357
292
292
368
317
289
346
329
267
311
355
275
295
354
309
270
346
328
264
311
348
295
288
365
295
281
342
327
262
318
345
275
293
353
299
271
348
312
261
320
339
268
290
352
288
279
335
321
261
316
338
271
288
351
291
276
343
311
271
308
353
262
301
353
299
277
343
319
260
318
339
264
287
361
277
279
340
314
255
309
350
267
293
352
295
273
345
317
258
318
336
268
287
354
281
278
339
311
255
322
331
278
294
339
282
271
340
310
270
325
336
269
300
352
283
282
344
319
266
324
335
272
289
337
266
224
272
242
204
289
352
311
353
426
331
292
343
326
245
313
324
260
286
345
280
268
335
309
253
310
332
251
288
341
274
262
343
295
252
314
315
251
283
336
263
269
335
295
246
310
318
233
279
319
255
256
327
281
254
313
320
263
297
359
274
306
371
331
296
366
369
296
343
388
312
314
375
335
293
351
358
289
324
374
304
301
362
324
280
349
334
275
315
360
285
291
358
297
280
342
330
259
316
345
279
290
352
302
273
341
325
263
307
350
273
295
356
300
280
336
327
266
311
340
282
285
355
301
272
335
320
263
307
346
270
298
346
309
266
335
324
255
303
341
274
284
353
290
271
330
323
258
305
339
267
285
353
295
265
342
313
262
312
339
269
291
357
280
276
335
320
258
319
337
266
293
354
294
271
339
325
265
309
351
254
287
347
288
268
330
313
258
308
330
251
279
347
290
271
339
323
267
313
350
273
293
349
300
272
345
326
263
313
337
264
273
334
238
207
261
254
229
331
379
346
376
414
319
272
340
295
249
305
334
262
287
347
282
274
332
309
249
315
332
262
286
342
282
273
336
296
252
298
324
245
279
326
268
247
312
288
229
288
305
249
254
326
264
252
345
294
254
308
335
267
307
363
320
302
379
347
300
372
374
313
337
401
318
314
379
338
284
342
364
285
317
362
303
290
369
317
275
332
344
280
305
366
291
293
355
312
271
327
348
260
310
351
290
286
350
304
270
322
329
264
297
348
279
286
346
301
271
334
327
269
312
344
289
292
363
289
274
342
331
271
308
349
269
294
353
298
271
344
323
259
317
335
273
288
366
293
278
344
319
259
313
344
262
293
350
292
267
350
311
263
318
337
267
294
354
286
280
347
317
256
320
329
260
292
345
288
274
345
321
265
310
342
272
301
364
282
289
347
320
267
332
341
283
298
356
299
288
349
301
243
272
277
185
251
347
305
325
439
398
320
348
340
260
274
341
276
274
340
306
259
316
340
256
295
347
287
275
347
302
256
316
330
257
280
339
268
269
332
294
244
303
305
232
278
315
273
252
317
273
242
289
308
241
275
332
272
273
343
318
279
346
352
299
331
392
335
317
396
346
305
359
383
286
338
381
322
311
372
336
285
346
351
283
309
372
294
297
365
327
270
339
342
269
312
354
292
282
357
310
272
335
339
262
309
355
284
293
346
317
270
336
335
273
310
357
293
285
357
302
269
328
345
258
298
358
273
277
349
307
265
331
322
258
296
349
281
279
345
312
264
325
340
261
306
350
286
275
353
308
263
326
332
266
294
354
272
279
357
309
263
328
324
261
300
348
278
275
348
303
268
326
326
263
305
351
287
304
353
315
274
338
334
279
304
363
279
287
355
310
273
322
323
241
257
276
224
227
325
327
300
402
410
309
313
357
265
267
343
295
261
324
318
254
298
343
273
269
344
287
267
326
313
252
287
334
258
273
332
295
253
333
322
250
306
332
267
273
340
281
259
318
311
249
298
336
260
283
345
295
265
345
331
283
339
370
292
321
390
332
312
373
357
297
348
378
303
321
379
324
291
366
338
290
331
365
283
306
371
300
288
351
336
261
327
339
274
297
358
296
273
356
315
271
314
341
267
304
353
295
283
349
323
265
324
337
275
305
356
289
283
343
316
270
317
350
255
297
347
299
271
344
316
267
321
340
279
294
360
291
280
346
332
269
326
349
276
302
362
298
278
355
321
272
320
353
263
299
358
295
281
355
330
276
332
341
279
299
364
299
282
353
317
271
322
345
276
302
348
294
281
343
317
264
321
344
263
294
358
281
286
338
310
267
317
348
276
304
356
297
281
352
323
268
332
335
272
298
359
285
277
334
284
203
255
274
214
299
381
326
344
418
328
276
325
313
255
294
353
272
278
340
304
259
333
316
255
303
347
262
280
349
290
269
323
315
252
299
331
260
279
331
285
254
319
301
251
293
320
252
258
337
254
264
319
323
236
298
338
271
297
356
300
287
365
341
292
350
385
319
333
394
320
311
369
357
284
344
369
283
312
374
299
287
359
331
262
316
350
275
298
357
302
282
345
326
264
325
336
279
295
357
300
279
344
321
276
310
345
271
296
350
303
279
342
319
262
318
339
277
285
357
298
275
340
327
262
308
351
266
291
352
296
269
345
321
256
312
348
277
287
356
293
291
345
330
259
318
349
261
288
346
284
271
343
309
263
308
340
269
289
350
288
278
331
318
265
312
333
275
284
348
292
271
331
316
261
306
352
269
291
350
295
267
339
326
260
310
336
262
286
351
285
269
331
315
260
316
360
261
302
356
288
271
345
321
252
314
337
271
290
354
285
268
304
249
191
251
298
271
329
402
374
332
360
316
259
299
331
260
286
349
288
272
337
315
252
311
332
267
281
348
280
266
336
308
250
299
331
247
280
334
275
250
328
289
235
293
304
244
257
322
260
246
320
284
233
289
314
245
288
348
283
274
357
327
289
344
371
307
329
393
328
323
375
351
292
347
366
293
315
367
313
285
364
330
277
329
350
281
305
364
289
286
350
330
261
327
346
291
298
363
293
278
352
302
267
317
341
253
297
351
269
289
345
304
254
322
326
264
298
346
286
277
352
307
271
320
336
272
304
357
289
279
345
315
259
328
329
259
295
348
274
276
349
307
265
321
334
259
300
351
282
281
350
305
263
330
321
264
293
356
275
281
349
304
263
330
328
259
303
340
284
281
348
303
264
329
321
258
295
344
270
282
338
304
257
338
322
257
290
346
268
282
358
303
277
326
332
267
300
355
287
291
349
319
271
328
323
246
286
291
217
201
297
297
298
377
429
337
353
370
282
280
327
292
250
325
323
252
296
345
252
268
350
287
263
325
317
251
297
335
265
279
334
294
248
324
299
243
283
317
247
256
321
265
246
296
292
233
275
317
251
263
329
292
261
333
319
275
324
366
310
315
392
335
319
374
372
295
346
379
300
324
383
328
292
369
337
281
336
358
285
307
382
302
296
376
334
279
339
354
277
309
365
307
284
365
317
273
329
345
273
301
356
293
286
342
316
262
327
338
276
307
353
298
282
351
315
275
320
344
274
307
361
287
290
352
316
262
327
346
267
298
360
287
283
355
316
264
312
336
264
298
352
294
279
346
322
263
329
341
269
292
359
290
278
350
315
263
316
342
275
297
353
287
275
356
321
266
339
335
275
307
358
292
287
354
309
273
349
333
261
304
339
270
258
304
242
198
275
313
301
349
436
360
342
374
310
261
315
319
263
302
332
279
270
342
305
261
325
323
258
292
351
270
282
341
306
257
323
322
245
292
360
252
264
335
281
250
313
304
241
279
325
252
259
326
277
240
312
312
252
298
344
285
296
375
310
300
357
366
291
343
390
302
325
394
330
289
359
347
295
325
363
300
297
370
312
283
337
339
266
314
352
279
290
354
308
268
338
328
265
310
357
275
290
363
296
278
342
335
261
315
349
276
293
359
302
271
347
321
268
312
346
269
290
360
288
272
333
319
259
322
346
260
298
355
295
275
346
315
272
310
347
273
291
351
297
278
337
321
262
312
334
281
284
350
297
274
336
315
255
304
345
260
280
348
288
267
337
323
261
306
329
269
287
361
299
283
347
324
266
317
352
273
298
357
305
277
348
323
261
312
341
226
227
283
228
259
339
354
317
388
410
307
303
346
285
260
337
315
258
315
334
274
285
349
282
272
336
321
258
310
338
266
291
344
285
262
337
309
254
312
335
257
278
351
280
270
332
308
249
308
325
255
287
339
287
269
344
312
274
329
351
306
321
379
319
325
379
358
303
353
383
301
331
385
331
306
379
346
296
341
367
296
321
375
310
294
360
341
273
334
350
284
302
363
297
281
361
326
272
326
350
274
305
366
303
284
359
328
270
337
343
275
299
363
294
283
355
320
273
313
346
254
321
349
292
281
344
315
271
320
331
279
296
356
288
282
351
313
273
318
337
264
306
352
281
284
352
318
266
332
335
262
306
362
270
288
359
295
292
343
338
260
319
350
268
289
348
297
268
345
308
260
318
335
269
292
355
281
276
332
319
262
327
343
267
305
356
298
284
352
317
277
323
342
278
291
356
290
278
318
278
187
244
273
230
288
380
344
342
397
328
266
304
328
253
280
344
277
266
334
318
253
315
329
262
284
348
271
265
349
301
255
304
329
256
279
343
251
254
321
293
236
302
299
241
268
325
261
254
318
279
243
292
316
247
281
336
282
287
351
333
278
353
362
305
330
389
313
316
379
346
299
348
366
287
328
375
316
303
366
318
271
346
343
280
309
366
289
296
361
308
268
333
333
268
309
348
284
289
354
300
272
338
330
270
305
350
280
293
350
301
275
327
332
266
307
342
281
280
353
306
266
336
332
260
301
348
269
287
350
308
268
329
329
258
309
350
285
287
357
301
270
333
326
261
303
347
271
285
342
302
270
349
316
246
305
336
276
288
350
298
274
343
329
259
306
347
253
288
346
296
272
335
309
256
308
335
270
274
349
288
266
332
328
257
310
350
270
291
351
298
269
338
316
261
308
343
269
278
349
254
206
265
255
206
302
365
315
377
414
332
275
336
300
247
299
328
266
281
342
279
266
322
315
259
303
332
265
286
347
279
263
330
298
249
291
319
246
264
331
272
251
306
297
229
286
316
237
259
328
265
244
325
291
245
296
334
267
294
364
306
298
369
358
293
359
404
302
333
405
320
308
380
336
294
344
371
281
310
368
311
294
354
337
281
336
354
283
300
365
304
285
354
316
265
313
346
271
298
354
294
276
342
326
256
319
343
270
286
365
289
279
350
313
267
321
342
268
300
351
296
278
361
316
260
321
335
274
298
358
277
279
340
319
262
311
337
262
292
345
292
269
340
314
259
315
334
276
283
353
294
278
330
318
255
312
339
269
293
348
280
265
345
315
259
311
342
267
289
354
287
277
339
331
271
323
348
271
292
357
298
274
347
309
270
318
344
264
286
345
241
231
272
239
199
296
357
308
384
441
352
308
352
304
257
302
324
260
294
344
274
277
331
308
259
315
332
255
289
342
284
258
335
295
256
303
316
246
277
330
260
255
318
292
232
295
301
234
272
322
238
249
328
282
249
306
324
257
302
364
291
307
377
345
301
374
370
308
352
388
321
321
388
337
305
360
358
287
335
375
282
308
359
326
284
348
343
284
316
370
292
291
361
310
281
333
342
273
310
352
293
298
356
319
276
357
338
268
310
356
285
293
361
308
282
336
337
253
305
349
286
288
354
310
270
342
332
267
312
352
277
292
364
294
277
332
326
265
316
343
279
289
358
299
270
348
316
261
314
341
270
292
350
295
280
335
321
258
310
331
273
279
348
295
270
336
321
270
313
349
276
285
348
298
269
337
322
254
320
337
275
279
339
267
229
277
245
199
278
364
306
368
438
350
300
341
311
245
304
334
264
280
348
282
270
337
309
258
314
341
244
291
337
282
267
335
301
248
316
325
262
281
342
271
268
330
293
248
297
315
243
278
328
274
257
318
290
250
303
325
256
287
358
300
290
360
340
298
349
366
289
326
381
326
305
376
338
288
350
365
295
317
381
297
303
371
329
280
344
345
268
312
350
285
282
360
305
267
339
325
270
305
352
279
292
351
309
278
336
334
267
312
354
292
288
361
301
279
330
329
269
294
352
284
286
344
311
263
328
331
262
303
343
289
278
357
313
275
332
335
272
301
380
267
296
352
320
288
337
338
267
312
357
286
284
366
313
283
339
335
272
306
362
267
293
355
303
262
330
325
252
304
346
266
280
350
298
268
336
336
272
313
355
285
297
358
318
280
346
333
274
313
352
279
276
337
235
199
268
281
249
331
392
339
361
390
325
269
326
316
249
300
348
271
278
348
290
267
329
318
255
307
343
272
283
349
301
266
333
312
270
304
341
269
272
347
275
253
312
310
248
296
317
262
263
334
290
252
324
304
259
295
345
285
301
385
321
306
369
365
290
354
380
319
321
396
338
309
375
358
295
333
376
290
312
378
318
296
354
332
271
332
352
264
295
357
293
278
350
312
270
320
341
265
304
357
286
289
354
321
269
332
341
263
304
351
288
274
359
305
273
318
340
257
299
356
260
280
343
308
264
331
325
274
295
346
287
277
353
309
272
326
338
263
303
352
278
284
349
303
262
336
323
263
301
354
274
280
357
298
270
333
323
259
311
346
273
288
349
304
267
350
320
263
306
343
276
291
353
289
276
328
324
257
306
339
274
281
341
297
263
337
317
269
310
348
278
291
357
304
275
335
327
259
314
345
274
284
340
280
233
273
242
198
266
341
306
334
442
355
299
349
311
242
310
329
265
287
349
284
262
338
300
252
303
336
257
281
342
283
267
326
313
240
301
311
248
266
332
267
249
320
280
245
287
302
239
266
321
253
251
315
287
234
303
316
256
290
351
270
279
365
324
294
357
374
298
338
389
316
317
385
344
291
354
357
285
314
375
280
296
375
319
282
331
340
269
314
365
290
293
359
304
274
343
333
255
301
354
261
284
341
296
267
320
328
284
303
343
277
276
344
310
264
333
326
272
301
353
277
285
351
309
269
328
330
259
306
343
276
282
352
298
265
336
321
266
302
357
262
287
352
307
269
333
336
253
309
346
273
284
356
286
265
331
320
270
297
348
279
284
348
305
266
329
323
266
300
340
275
274
350
307
264
324
322
261
292
356
279
292
354
313
271
340
330
267
311
357
283
281
361
299
272
329
322
239
260
280
201
228
331
321
306
424
410
323
334
363
276
279
344
288
262
314
318
258
295
344
258
278
340
302
260
329
312
257
287
332
269
268
337
290
259
311
309
233
284
316
243
253
317
280
234
302
292
236
273
328
252
266
347
299
270
331
340
273
330
376
308
321
393
346
312
372
367
305
339
391
285
320
377
328
301
359
351
283
332
359
293
302
369
313
287
358
328
274
320
355
284
300
362
304
287
346
333
268
319
345
284
298
356
301
275
353
333
278
323
348
263
299
363
294
281
344
323
266
327
351
278
297
358
298
274
346
305
257
317
339
265
300
351
293
284
342
320
267
323
336
273
295
353
292
285
354
314
265
316
339
270
295
356
278
280
359
315
258
326
333
268
296
348
279
276
354
316
280
331
341
268
310
362
274
295
355
313
270
342
324
265
307
345
250
247
295
222
202
298
332
295
377
434
339
326
352
302
257
326
307
259
301
336
270
278
347
284
266
322
316
261
291
340
258
280
340
294
258
326
302
245
301
337
250
266
348
262
250
312
298
235
284
325
242
262
328
274
246
327
299
254
304
341
278
297
369
316
318
364
355
294
352
372
307
333
388
333
300
369
342
293
333
367
296
307
373
308
292
347
333
268
320
345
279
291
351
308
274
346
317
265
310
349
270
296
363
307
285
347
331
266
323
343
276
295
364
296
280
347
314
265
313
346
259
291
348
289
275
341
317
260
319
338
276
293
356
301
289
349
319
278
324
347
263
299
352
299
280
347
322
264
325
332
275
293
355
286
278
351
315
269
320
343
267
293
350
286
280
347
313
262
326
335
269
289
367
270
275
347
309
264
323
330
255
300
352
291
280
352
314
267
330
334
274
298
357
289
293
351
314
275
319
341
248
279
300
223
218
300
287
282
362
392
340
336
367
285
274
349
307
257
322
337
263
302
352
269
275
348
305
264
320
327
261
293
345
273
276
339
304
244
316
317
250
307
347
278
268
343
272
253
317
311
247
283
337
265
277
337
300
262
328
330
277
327
364
313
309
389
340
320
372
371
315
342
389
315
324
380
342
293
363
353
283
323
367
295
297
369
311
284
339
337
271
325
360
283
293
357
296
265
341
318
264
312
348
281
285
363
301
278
335
327
265
313
346
274
298
352
307
269
338
314
258
311
333
271
281
352
276
284
334
313
262
308
338
269
290
344
293
276
346
320
268
322
338
268
291
357
294
282
341
316
264
316
341
271
291
349
276
275
349
323
264
316
337
272
291
360
286
280
346
315
263
319
338
261
302
348
292
274
345
307
265
330
338
257
293
348
280
282
337
310
260
316
328
264
295
350
300
288
357
312
273
325
333
277
294
358
283
280
342
313
255
312
319
216
226
278
231
238
357
349
314
392
382
275
302
350
272
278
336
300
256
326
318
256
296
333
274
263
339
283
258
319
311
253
304
348
259
277
335
279
256
322
305
245
301
329
261
268
342
261
253
318
297
245
289
337
240
278
347
278
270
334
331
270
338
365
310
320
393
333
313
380
360
301
348
382
298
325
382
321
299
368
346
276
337
348
290
300
375
303
288
355
329
277
317
341
269
302
351
297
283
342
318
271
331
332
278
291
359
272
288
346
316
270
313
338
267
297
347
295
277
345
312
258
322
332
274
298
355
277
278
341
312
259
316
338
256
298
348
284
277
349
304
265
327
325
269
292
358
280
281
337
301
262
325
327
257
304
337
279
274
351
293
266
326
325
260
290
352
266
281
341
291
258
325
327
248
301
332
260
264
338
294
256
315
319
260
287
338
264
273
337
313
266
322
336
263
304
348
288
278
357
301
271
331
325
273
294
338
256
244
282
230
197
296
326
289
368
433
348
317
357
296
260
318
310
254
293
342
266
280
333
299
259
326
313
261
303
345
259
272
341
286
253
312
310
245
274
321
245
251
314
281
235
300
286
225
268
317
240
248
324
270
253
306
317
251
303
352
281
305
383
335
300
379
364
309
352
397
324
324
393
333
304
356
365
281
333
372
282
311
369
313
285
361
342
279
320
364
295
305
366
305
290
349
336
272
328
352
280
294
350
305
284
349
314
260
315
343
276
287
355
301
277
335
330
267
317
346
273
297
356
302
275
354
319
269
324
350
263
296
364
288
281
349
318
262
328
339
269
297
347
292
277
349
305
268
319
335
268
294
353
281
284
343
315
266
329
345
273
298
344
292
270
346
310
264
309
333
258
292
350
284
276
337
317
257
327
339
270
301
362
301
275
355
316
279
329
344
270
302
363
276
285
336
296
220
263
268
220
291
390
327
370
440
352
295
326
318
251
289
336
269
279
342
300
262
331
316
260
304
331
275
270
345
289
271
318
314
254
287
336
261
272
334
290
252
325
304
240
288
320
253
259
335
270
250
314
313
240
289
335
264
290
354
312
285
368
351
315
349
378
317
328
395
331
310
373
351
291
352
375
294
312
366
315
294
362
329
278
327
345
285
300
358
294
285
352
310
283
324
341
272
307
354
288
281
352
316
265
330
328
278
299
362
268
289
356
307
273
326
336
263
303
344
276
282
351
306
265
331
324
264
297
347
277
278
353
286
270
331
332
260
310
362
284
287
356
310
268
335
324
278
305
351
278
289
358
296
285
334
325
280
315
341
277
293
352
302
275
340
315
264
308
343
268
286
350
297
289
332
322
261
323
347
277
298
363
287
280
359
323
274
319
338
265
294
348
273
254
288
244
197
281
318
298
348
420
355
315
357
305
254
309
333
253
286
339
275
271
331
307
254
310
321
263
281
342
279
260
335
295
262
307
330
251
285
341
261
269
332
303
246
312
311
252
281
335
259
264
319
286
253
307
337
255
295
361
293
294
373
337
292
364
365
305
332
389
319
316
378
341
296
354
368
288
330
377
299
306
370
326
283
342
342
286
303
363
294
284
353
315
275
325
337
271
307
351
284
279
353
315
291
329
338
265
302
363
283
288
356
311
274
330
340
262
308
350
283
280
358
307
272
340
335
267
305
354
279
290
354
307
280
335
335
263
320
356
274
298
360
310
280
339
330
280
313
352
284
302
360
313
280
339
337
263
317
345
280
285
354
301
273
342
317
268
301
356
263
290
350
300
275
338
326
269
314
340
273
284
352
286
266
336
311
261
312
347
279
300
362
298
277
345
326
266
322
346
268
292
358
296
294
324
293
216
230
277
217
269
367
341
342
407
355
271
313
320
266
275
347
288
266
331
316
257
300
338
258
283
346
274
265
334
314
261
311
331
261
274
346
271
266
332
307
259
304
326
250
282
335
278
248
323
289
241
304
325
260
276
346
279
284
340
331
286
339
366
305
338
389
340
315
388
349
303
357
372
302
323
378
313
306
362
346
274
330
349
275
306
362
304
283
359
316
270
321
347
276
298
361
291
286
343
314
263
319
342
261
305
352
293
283
353
309
271
319
336
269
296
356
283
292
344
310
269
329
331
272
308
347
291
276
355
308
270
329
335
257
297
353
277
290
344
317
269
335
325
258
307
348
280
277
357
301
266
328
325
264
300
357
262
289
344
305
270
341
329
260
310
340
277
284
352
296
273
336
318
262
307
344
267
294
341
298
276
338
324
256
315
331
263
282
347
286
268
327
307
255
311
354
261
300
353
280
269
339
316
259
317
337
282
282
354
284
265
319
281
191
235
280
223
293
381
349
355
403
340
267
313
321
260
279
358
278
271
338
307
258
314
330
255
298
338
280
272
337
303
257
314
314
255
278
334
261
269
328
286
244
292
308
235
268
311
260
249
317
281
237
298
301
246
271
334
272
278
348
321
286
348
357
289
334
382
311
312
390
338
299
360
363
298
322
376
293
301
359
312
278
346
343
262
319
355
290
287
364
314
280
346
335
270
311
363
267
291
359
298
273
334
327
251
312
337
274
277
345
295
269
327
317
264
295
344
276
283
352
306
272
335
333
259
313
341
287
280
350
298
269
338
315
261
303
345
270
284
353
289
275
339
315
254
321
332
269
290
355
288
266
340
314
263
309
342
269
296
350
292
279
339
322
262
312
342
265
288
352
293
279
338
314
261
305
339
268
289
351
300
274
340
326
262
317
337
255
279
351
294
274
351
324
264
305
345
267
293
356
293
279
348
329
264
316
325
245
241
294
216
221
338
341
317
411
430
306
318
353
265
266
324
307
258
312
325
264
285
344
284
268
340
304
260
312
331
266
289
337
279
269
329
300
241
309
312
243
268
317
257
249
324
279
233
291
307
231
273
331
258
264
337
292
260
339
354
278
327
369
310
320
400
330
313
381
375
306
343
385
303
324
386
322
290
358
345
274
324
355
294
302
368
314
289
359
339
280
319
352
285
302
359
316
293
354
331
268
321
350
284
293
363
303
276
339
325
266
313
357
277
301
361
293
280
343
327
266
320
344
278
289
359
287
284
348
315
258
313
342
270
296
348
299
276
344
318
269
327
346
287
287
359
290
281
339
323
267
313
338
272
296
347
301
269
345
318
263
312
334
277
285
352
287
272
338
326
255
311
332
257
296
353
295
282
358
314
271
328
342
276
299
366
293
289
351
312
263
314
316
222
245
273
227
256
374
348
350
424
389
305
307
345
268
278
341
295
266
320
314
253
303
337
268
283
346
299
264
333
310
263
302
339
264
278
344
289
272
331
318
248
297
328
242
271
328
274
246
316
293
239
288
339
242
266
342
274
271
342
333
274
341
366
297
329
390
332
313
389
350
299
358
370
300
324
380
311
307
359
337
274
341
343
276
304
352
293
285
353
309
263
312
334
274
297
359
278
282
342
318
261
320
337
276
286
350
293
274
350
316
268
322
351
267
298
353
285
285
341
312
260
323
340
258
295
358
285
273
353
305
269
326
336
268
300
349
283
284
350
313
261
339
332
269
297
351
289
285
358
324
271
320
343
253
309
356
286
286
353
305
258
330
327
267
288
344
281
274
345
297
268
332
335
250
297
345
289
281
349
327
276
334
342
278
302
359
291
287
352
315
275
326
351
264
293
327
252
213
280
255
227
336
364
319
367
407
304
284
341
292
255
317
327
258
304
345
281
275
345
304
262
324
324
267
291
351
279
285
338
306
263
317
335
253
299
334
281
273
344
297
252
311
313
253
281
340
266
273
333
310
258
321
336
252
310
352
299
295
374
346
305
370
365
304
337
399
320
325
385
344
295
360
367
296
333
382
294
302
375
325
288
345
348
278
312
366
278
296
351
300
268
336
332
275
320
349
290
285
359
305
282
330
335
283
312
360
280
287
353
319
267
337
340
269
307
352
289
280
355
305
272
333
335
268
303
357
278
290
353
308
267
341
327
270
313
351
285
288
362
294
276
335
328
267
305
349
280
299
350
310
264
334
326
274
305
344
281
282
356
300
274
328
330
267
302
353
274
286
350
318
266
332
323
262
302
349
266
281
353
295
271
341
325
255
307
341
279
295
361
315
275
346
329
275
311
348
284
295
361
289
278
322
313
222
246
273
190
241
336
325
313
408
379
298
316
334
263
276
344
291
273
328
318
257
305
336
275
280
344
298
257
328
313
255
297
338
268
272
343
279
258
322
311
243
296
317
247
266
328
271
244
320
284
237
287
313
242
265
338
272
270
328
310
266
333
349
288
339
381
327
317
387
346
306
359
368
301
324
380
309
316
376
336
285
340
346
282
315
363
288
297
360
312
268
332
334
269
302
355
277
286
352
316
269
327
337
261
311
356
270
286
351
304
272
337
321
269
297
351
271
284
352
299
264
338
331
254
305
337
277
285
350
301
267
336
323
272
302
345
274
286
352
294
276
333
321
264
312
333
273
285
355
301
263
339
315
262
306
344
266
290
354
283
280
337
313
263
318
340
259
293
351
272
271
350
308
263
323
322
263
294
347
277
285
348
311
258
320
324
258
307
342
280
268
348
294
263
321
318
265
295
352
278
293
354
300
277
338
329
262
314
340
282
288
349
296
259
322
281
202
234
287
216
294
383
343
361
398
343
271
317
325
252
289
343
282
270
341
305
253
311
318
255
286
347
268
276
338
300
253
315
314
248
291
328
268
261
328
276
243
296
299
248
264
323
243
252
311
266
246
296
302
239
281
327
283
275
356
313
284
349
352
291
332
387
313
324
383
346
296
361
366
289
331
362
297
293
375
313
286
348
343
279
309
355
280
294
354
310
273
339
337
264
315
345
281
286
354
302
274
337
317
263
309
351
272
285
341
300
273
333
324
264
306
341
270
284
354
297
283
340
326
273
311
356
263
292
353
284
271
338
318
252
317
336
266
281
348
285
270
339
312
264
307
343
263
290
357
289
272
341
308
261
320
338
272
296
352
291
275
349
310
268
322
343
261
297
352
289
285
347
314
258
324
331
263
292
340
281
278
345
303
265
312
333
268
295
358
291
287
351
320
272
333
333
263
303
348
286
277
354
309
263
312
310
217
230
282
223
271
378
358
358
422
401
297
307
344
269
265
347
280
266
328
324
250
293
339
265
276
343
289
253
321
308
247
298
330
265
270
339
266
250
313
298
239
276
325
242
250
315
269
236
308
293
229
274
321
264
264
341
287
266
333
334
275
330
377
304
328
379
348
309
374
362
295
340
366
294
309
385
313
294
356
337
277
334
359
284
309
366
314
286
358
332
273
330
347
284
301
364
295
291
354
324
268
316
342
270
296
349
297
275
347
317
265
324
331
273
294
355
288
284
347
320
272
334
338
259
308
354
286
286
355
310
267
335
333
268
302
351
277
280
350
298
269
341
331
262
308
347
259
287
353
301
265
339
317
268
322
342
270
280
353
281
272
326
320
254
303
348
267
285
341
272
262
336
313
266
314
346
282
290
359
303
282
340
325
263
318
351
281
298
349
291
263
312
261
185
243
305
281
325
422
386
350
386
327
259
308
325
261
287
343
285
261
335
305
255
303
331
262
278
354
268
275
346
313
256
302
328
262
278
334
284
256
324
288
230
280
307
236
254
320
260
243
304
298
231
295
318
249
278
346
294
278
359
343
314
346
369
302
329
405
315
319
381
357
296
353
374
302
318
378
322
313
367
344
283
332
360
274
304
370
302
297
340
331
273
329
353
265
298
355
301
284
357
323
276
329
349
278
303
356
292
287
349
314
266
334
347
275
306
357
295
298
359
316
275
333
344
270
305
369
290
291
358
313
270
336
335
268
308
347
289
279
361
297
269
334
327
267
306
352
273
286
352
305
262
323
321
254
300
337
275
278
349
305
273
333
330
275
304
362
268
292
352
311
276
340
324
250
301
328
255
240
289
236
212
307
344
309
372
432
324
308
360
277
255
324
319
249
303
342
280
279
352
292
267
330
319
254
307
352
251
283
341
294
262
333
310
248
302
333
268
274
344
284
263
320
307
251
291
332
277
281
328
287
258
327
318
253
311
341
296
293
377
324
304
373
364
299
356
389
308
325
385
324
298
372
351
287
340
372
297
310
387
310
291
361
326
276
322
356
268
301
350
296
280
343
318
260
323
339
275
301
361
301
283
348
318
266
311
338
265
296
350
293
280
341
315
263
316
324
272
286
351
290
274
342
316
271
307
336
264
296
347
299
274
348
327
272
330
350
268
299
361
296
288
353
317
276
326
353
258
305
372
280
276
350
315
266
334
332
278
299
358
292
287
355
312
274
328
337
265
312
351
286
290
357
318
277
337
340
286
309
362
295
303
368
316
279
334
340
273
313
353
295
291
338
291
216
269
272
229
292
381
325
346
422
330
288
338
326
255
306
345
270
290
348
304
268
338
309
259
313
335
270
283
353
287
275
334
313
258
313
333
258
291
344
269
268
354
321
254
303
317
256
276
339
266
264
327
301
255
310
332
266
308
363
311
299
379
348
304
365
375
318
339
400
307
320
381
338
298
339
361
284
324
362
305
290
360
325
277
333
343
280
294
358
282
280
344
304
265
321
333
259
298
343
277
274
351
303
262
343
331
270
300
356
269
283
345
300
266
322
326
255
302
337
277
284
345
293
273
329
316
267
298
343
278
293
351
299
264
325
326
266
313
348
277
280
356
306
269
339
330
267
305
356
274
288
351
306
277
332
321
256
306
339
273
283
355
293
266
341
311
262
307
344
266
289
351
288
271
342
330
255
310
337
273
282
358
286
271
338
316
268
313
356
263
297
354
280
281
340
325
255
315
329
274
282
344
282
244
288
239
198
250
315
292
321
400
374
315
345
328
246
302
328
275
277
341
282
259
328
305
248
299
334
253
277
341
281
262
331
310
248
307
331
251
276
348
280
258
319
287
242
289
314
243
270
324
267
255
320
290
237
294
314
248
280
354
280
285
354
329
293
340
373
305
325
387
325
315
374
354
293
367
361
296
316
372
311
292
362
329
278
326
352
276
304
364
285
288
348
321
267
331
331
271
298
360
275
280
349
297
265
319
334
245
293
337
272
279
342
306
261
326
326
266
299
345
282
278
350
302
277
318
326
262
298
342
277
277
339
310
262
324
325
267
296
344
281
283
351
306
284
321
330
256
296
346
280
271
340
304
255
324
317
259
291
346
276
275
352
298
268
329
333
250
307
346
277
282
352
307
263
328
323
265
299
347
274
277
345
295
271
315
321
255
294
339
270
281
346
289
273
346
330
265
304
345
283
285
355
304
277
330
332
264
314
348
269
274
317
240
188
263
262
250
328
387
366
361
402
298
262
318
324
244
297
333
264
280
346
293
260
332
312
260
311
335
266
280
346
284
272
318
319
247
298
324
251
268
323
272
244
308
281
236
279
302
247
263
317
261
247
312
302
244
301
339
280
305
372
297
298
379
354
302
367
379
319
335
397
320
312
377
352
292
342
357
279
323
370
286
291
367
326
280
347
348
288
309
370
297
302
366
318
285
346
352
277
321
351
289
289
359
315
274
337
330
279
299
360
275
296
362
316
279
331
335
268
318
353
287
287
360
305
276
339
333
264
300
352
269
292
351
304
274
332
334
264
306
344
275
298
355
302
265
337
323
268
302
353
274
293
354
302
274
329
325
256
314
342
265
287
343
295
273
329
319
273
300
354
283
291
363
317
279
339
336
265
318
350
292
288
359
309
274
342
333
264
284
327
223
218
283
250
266
363
383
351
388
396
301
281
349
288
262
330
328
266
304
365
265
285
348
293
273
328
320
258
309
333
270
279
342
297
264
329
329
261
291
339
262
281
335
280
249
311
295
230
284
309
250
255
332
260
253
327
307
262
310
356
279
309
382
329
306
379
359
304
357
375
307
335
387
323
301
378
335
284
332
357
281
314
361
304
296
358
325
269
334
343
279
302
358
296
292
353
312
271
320
337
274
300
362
286
287
346
321
276
331
330
271
302
351
292
282
350
312
274
330
342
272
305
361
285
290
349
322
265
335
341
265
305
370
289
280
358
300
274
332
332
259
303
354
279
290
351
309
260
339
328
263
308
351
273
279
357
284
269
339
327
262
310
355
258
290
355
293
279
349
332
262
316
352
272
290
358
284
269
337
320
265
303
333
250
252
284
233
207
305
337
300
377
426
340
316
365
306
271
327
316
256
307
340
266
294
349
295
263
336
319
259
308
332
269
267
341
279
264
337
305
248
304
321
254
288
335
280
264
333
301
250
307
318
257
273
337
272
264
327
302
266
307
335
271
305
361
314
296
366
338
289
355
363
302
316
380
316
303
372
340
290
342
370
288
324
365
301
291
359
323
277
338
346
272
303
365
292
292
362
318
274
328
341
270
309
357
279
291
357
315
277
344
331
266
308
352
285
290
360
308
285
333
338
272
316
349
288
302
359
311
278
342
328
262
308
349
284
288
359
307
281
339
338
267
318
353
281
292
354
316
270
344
323
269
314
353
277
290
367
288
278
343
325
265
321
338
262
298
350
298
275
355
320
265
312
331
269
292
348
282
279
345
312
271
318
334
264
303
359
279
289
350
316
276
337
336
266
294
352
291
279
351
307
255
288
272
196
249
312
293
315
391
385
327
353
342
255
286
342
275
282
351
299
264
320
336
251
296
343
276
270
339
297
260
326
316
262
299
342
265
277
335
287
260
312
318
238
290
322
257
275
332
285
250
313
296
244
282
328
261
280
342
295
278
340
342
281
334
370
314
324
381
342
301
372
353
296
339
382
295
308
378
311
300
357
319
272
328
347
269
299
348
293
275
353
306
264
327
330
269
298
353
283
286
353
319
267
317
335
264
302
350
292
282
349
314
268
324
334
277
296
356
286
287
344
318
274
319
333
269
306
351
296
279
351
312
269
326
341
259
291
364
272
287
342
307
255
317
342
259
302
353
284
282
356
307
269
336
327
270
299
355
280
286
350
311
266
330
329
263
311
343
279
280
345
304
269
323
314
264
286
342
274
279
347
307
269
345
333
273
307
346
295
286
353
310
275
340
337
266
306
359
259
268
309
223
189
263
295
263
339
390
346
336
375
308
259
323
305
255
301
341
263
281
341
295
261
328
315
258
307
334
269
281
344
289
266
332
305
256
294
333
257
281
336
286
256
314
306
242
315
314
256
264
329
267
248
320
300
248
295
342
256
291
353
309
295
361
348
293
352
377
307
325
393
322
308
377
344
295
339
375
286
313
369
308
291
355
323
269
337
337
277
303
357
294
282
350
312
269
308
337
265
304
345
285
288
349
312
264
324
341
260
294
350
290
277
349
310
270
316
338
268
299
346
297
294
350
313
262
328
328
266
297
350
295
275
351
293
266
325
332
259
296
350
276
286
361
313
269
331
318
258
299
343
280
279
359
296
272
329
319
260
304
361
264
290
344
303
259
329
320
258
296
338
280
274
355
289
265
314
306
253
286
330
259
278
331
297
256
324
311
266
300
342
284
282
358
306
283
337
341
268
307
347
270
285
347
282
250
314
267
183
236
277
228
290
382
355
348
380
328
257
288
320
242
277
337
275
259
328
309
246
300
321
261
288
342
278
270
329
301
258
294
323
249
274
326
272
251
317
287
231
290
316
232
260
314
262
241
320
283
240
295
321
244
288
344
285
285
352
336
296
351
378
292
332
396
322
318
395
345
307
355
372
287
316
373
286
298
365
320
275
339
344
277
308
368
285
287
352
313
280
334
343
257
309
343
285
294
343
310
264
327
324
268
292
347
288
287
344
297
261
321
341
269
306
350
282
284
352
310
268
335
334
273
300
363
282
279
356
299
269
331
330
262
308
352
282
282
344
300
258
327
314
258
316
340
272
282
353
279
273
329
321
264
308
338
272
291
340
303
270
335
319
263
295
342
276
274
347
295
268
326
330
252
312
347
274
296
354
317
271
344
325
270
320
359
284
294
365
303
287
342
319
247
285
286
197
229
307
301
310
411
418
335
368
355
254
277
338
274
267
335
310
260
316
332
262
295
343
287
273
342
311
268
312
326
267
282
346
279
263
331
298
241
296
310
232
267
313
256
242
311
284
232
296
309
246
267
337
269
270
343
309
275
341
366
281
333
385
330
323
396
356
311
370
365
306
337
385
314
305
367
324
288
344
350
278
319
355
303
296
383
323
289
344
342
285
310
365
293
299
362
316
276
334
338
272
312
360
280
290
356
320
279
344
332
275
305
357
286
295
374
305
273
333
334
269
311
353
270
287
359
297
273
331
327
264
303
364
281
286
359
307
279
336
330
261
310
341
276
282
347
299
268
335
318
262
304
346
273
292
346
295
275
326
324
270
312
343
271
290
352
310
275
344
321
270
311
346
266
290
355
295
276
335
316
240
285
291
199
221
299
289
302
397
398
340
359
361
258
284
338
275
272
335
315
254
321
328
261
301
345
284
271
340
302
258
313
326
262
286
347
275
278
333
308
256
312
320
254
287
333
280
257
328
292
256
303
313
256
280
337
270
276
341
310
270
337
349
286
327
376
318
297
376
337
289
352
361
289
318
399
300
308
369
331
286
347
351
280
313
360
288
284
352
309
272
343
324
255
303
346
268
290
348
303
276
329
327
264
312
346
281
290
354
305
277
345
319
271
310
344
278
289
353
300
273
337
333
258
318
340
273
293
353
306
283
349
325
276
316
352
282
293
357
292
278
340
321
266
316
340
268
294
354
284
275
351
314
266
324
351
275
294
360
290
283
341
321
266
321
339
271
302
354
301
280
348
303
266
317
341
275
295
360
290
290
351
325
272
331
342
278
310
358
302
286
363
322
278
335
338
265
274
308
211
226
304
301
297
374
401
336
344
368
295
275
346
301
266
331
319
265
298
345
276
282
344
295
266
333
320
254
302
336
280
277
339
295
261
321
304
255
286
331
259
265
333
282
253
312
305
246
294
324
248
266
329
302
253
332
316
267
316
362
296
310
391
327
312
371
362
297
349
390
300
322
371
321
290
362
338
282
332
350
288
300
364
298
285
349
329
267
324
350
263
293
357
281
273
344
312
261
317
336
269
290
346
279
278
340
324
262
320
337
268
297
352
302
269
346
311
262
316
336
267
289
354
282
282
346
316
264
314
333
265
298
357
287
278
358
312
265
320
333
268
294
348
280
280
344
314
262
320
333
264
299
341
290
282
361
313
270
326
334
258
295
349
277
288
345
302
270
329
334
266
304
346
287
279
350
310
263
326
325
267
290
344
264
279
341
309
260
325
328
260
328
349
283
284
361
302
271
343
323
268
308
353
276
289
344
283
247
276
250
189
252
322
279
324
414
358
305
351
313
249
292
328
256
282
336
274
262
324
312
250
303
326
262
278
342
309
262
332
310
253
301
332
261
275
340
285
258
316
303
241
301
319
249
272
330
271
248
325
289
243
301
320
257
285
348
287
286
361
332
283
351
365
303
336
398
330
316
384
343
302
348
365
297
315
377
310
310
363
327
280
336
349
275
304
356
296
278
351
319
274
324
339
278
294
358
287
289
345
319
269
324
341
278
309
354
289
276
350
321
271
325
342
271
300
362
284
282
348
303
266
328
336
268
308
349
292
271
347
301
266
326
325
267
295
350
279
283
343
309
262
327
327
260
304
339
283
283
345
299
270
327
321
261
287
349
259
285
338
306
270
324
344
265
301
343
287
278
349
311
269
333
317
259
307
337
271
285
347
288
260
322
319
250
300
347
258
284
357
303
274
349
327
273
309
340
269
291
350
292
275
334
320
255
311
313
231
229
283
218
226
341
340
324
411
403
305
301
352
272
261
323
307
258
309
333
266
286
341
297
273
346
309
257
310
323
265
280
345
276
271
327
295
237
294
317
231
258
316
247
239
316
280
234
287
314
243
266
346
266
262
330
309
261
327
342
281
319
380
327
315
385
357
310
360
377
309
336
386
315
317
364
336
286
334
352
287
320
364
309
281
357
329
282
331
345
287
302
366
305
301
357
328
274
329
343
278
308
359
276
277
343
300
258
319
338
267
293
354
280
280
348
314
264
330
337
264
305
352
294
285
353
313
269
334
331
271
301
350
280
286
344
307
271
317
333
262
308
350
292
283
355
303
271
331
328
273
300
360
263
284
351
293
270
326
326
248
299
343
286
276
346
314
259
331
320
261
301
357
280
291
364
306
280
343
338
265
320
352
282
296
366
316
270
341
311
244
274
281
205
228
325
318
321
410
426
346
353
354
272
281
336
298
271
331
309
261
299
332
273
278
347
291
270
327
316
257
302
338
260
276
342
279
251
324
304
246
289
304
236
253
325
252
239
308
286
232
287
317
248
274
338
269
265
343
321
278
344
370
310
325
389
329
325
383
363
310
363
388
310
340
393
316
309
377
345
291
344
357
293
312
378
289
299
360
313
275
326
352
283
318
355
304
284
353
325
269
330
342
276
298
363
292
283
353
316
276
325
341
267
306
356
291
287
354
312
268
338
342
269
300
348
282
285
358
312
269
328
336
264
315
347
291
292
350
318
263
329
328
258
292
345
280
279
346
306
272
320
332
256
297
345
286
293
351
321
266
333
331
271
297
344
281
282
349
306
265
314
322
237
253
267
204
223
331
333
303
410
395
313
313
356
268
265
345
303
263
321
331
249
299
343
281
277
343
299
251
322
320
250
287
331
254
270
338
288
263
310
316
255
304
333
275
280
333
289
251
318
310
249
289
332
268
269
346
297
273
335
338
274
328
370
299
328
386
344
301
375
355
296
345
374
303
316
383
311
303
374
329
288
342
356
282
318
358
299
288
360
320
261
322
326
267
295
355
283
280
350
299
274
323
337
262
310
352
287
294
351
311
280
344
331
268
301
348
291
284
358
289
262
320
329
257
300
342
273
281
346
307
264
333
331
268
308
351
287
286
356
292
275
343
330
265
309
351
281
285
355
301
260
340
322
269
313
356
278
288
357
302
282
333
330
263
309
346
275
293
348
304
273
338
322
272
314
345
293
297
363
300
280
343
332
280
317
351
280
301
354
310
277
339
285
198
245
277
238
293
396
339
348
393
337
269
306
332
258
287
351
289
270
342
314
254
324
333
269
288
350
285
277
347
311
267
310
336
245
295
342
281
278
333
306
256
314
319
260
281
340
272
261
331
296
265
303
323
257
290
346
295
294
358
328
293
356
362
305
336
391
320
318
392
349
307
358
377
290
326
379
292
304
369
332
280
342
342
277
310
361
291
284
361
308
277
340
340
265
308
358
275
284
346
299
267
332
324
264
306
344
285
283
350
310
277
328
320
267
296
345
273
289
334
298
264
322
314
257
299
334
277
283
347
300
266
328
327
262
303
346
272
289
348
311
278
335
321
261
312
344
279
287
360
301
274
347
324
268
314
352
273
296
349
300
274
344
322
262
309
333
273
286
350
293
271
335
316
266
313
346
267
287
352
278
275
339
329
269
323
343
280
295
360
294
283
339
322
264
312
348
270
287
342
279
222
261
251
203
289
359
312
350
425
332
288
347
306
256
307
335
265
287
350
268
276
332
311
254
304
331
263
291
344
287
267
332
307
257
293
324
254
272
329
269
257
316
294
237
302
302
241
265
326
263
261
329
282
241
301
310
254
284
352
279
291
364
327
293
359
360
298
344
388
307
318
398
346
299
355
347
288
325
368
295
306
360
320
289
348
351
267
314
349
286
289
354
309
282
345
321
271
306
349
275
292
358
274
278
335
321
249
308
342
257
285
342
278
266
340
319
259
311
336
273
288
358
284
274
347
317
265
321
336
262
297
340
292
269
342
305
256
328
319
258
288
346
278
279
339
303
265
313
327
261
296
341
281
277
340
301
270
331
324
268
291
352
258
275
345
301
267
321
332
257
298
345
278
279
342
298
262
333
313
252
300
342
284
290
351
291
273
338
325
263
313
341
273
293
348
299
275
340
311
244
294
288
205
209
297
268
298
376
407
353
369
377
257
291
336
268
261
330
316
252
308
336
259
280
349
276
271
323
302
247
298
330
253
273
329
273
253
315
295
232
289
307
240
253
324
248
237
311
297
227
285
309
236
273
328
271
267
339
316
269
341
350
294
326
386
328
325
386
350
313
364
364
300
328
382
308
311
364
326
293
354
349
281
313
358
299
308
377
314
286
340
350
271
310
364
291
297
357
320
282
341
330
264
305
345
286
278
351
309
271
330
322
256
297
354
273
290
357
296
269
330
334
264
316
340
284
292
366
296
270
333
328
261
305
351
270
291
351
300
271
332
331
253
322
363
270
279
352
288
271
333
318
264
306
349
278
294
362
309
279
336
325
253
312
339
278
286
352
297
270
337
320
274
317
359
270
296
360
304
286
353
335
266
330
348
282
301
349
290
255
304
252
199
254
318
295
334
433
384
346
375
327
264
312
327
261
282
343
294
264
340
314
263
313
333
267
286
355
273
276
337
317
256
311
339
261
302
338
274
258
339
291
243
302
309
242
264
336
240
251
316
285
241
303
309
249
293
350
296
288
367
335
292
356
374
301
336
397
326
325
387
354
303
357
366
283
325
370
315
305
362
331
285
344
343
290
309
366
302
295
359
326
280
330
348
268
307
360
278
281
352
326
267
339
331
272
305
360
286
285
359
307
275
334
336
264
311
350
295
289
353
301
267
345
328
268
307
351
269
282
342
295
276
325
324
261
305
354
260
293
347
305
270
340
321
271
315
341
274
280
351
294
273
336
321
265
308
351
262
293
350
301
266
340
325
262
313
330
272
276
351
293
282
353
327
278
324
362
266
303
358
299
287
350
330
273
319
338
249
267
305
200
214
301
299
301
362
412
327
340
363
285
273
329
306
262
327
323
254
290
337
280
279
341
295
269
320
317
250
285
339
259
274
337
301
263
322
319
238
291
328
265
267
343
294
253
322
309
255
288
339
266
272
341
292
274
335
338
271
329
368
289
313
381
336
302
382
350
295
343
377
312
318
379
332
304
352
342
278
331
351
289
300
364
306
283
349
325
276
313
348
280
291
358
302
277
337
329
263
316
340
287
296
358
309
275
367
321
275
316
352
265
291
360
283
284
341
326
257
308
336
267
291
348
296
272
346
313
266
319
334
275
301
360
289
288
340
320
280
328
346
277
319
353
299
289
357
321
284
335
342
285
302
366
297
289
349
315
273
325
337
267
303
350
290
279
345
312
261
328
338
266
295
358
283
283
354
313
276
325
331
264
304
348
286
283
349
306
262
331
317
266
300
353
285
288
355
294
284
333
339
266
307
346
280
283
349
310
265
321
301
227
228
284
236
247
369
344
328
397
379
268
308
335
269
273
338
302
259
324
316
253
298
339
271
269
341
285
263
325
318
255
302
344
261
279
338
292
256
332
303
244
297
318
261
268
334
276
258
311
299
246
289
328
256
287
335
292
275
342
333
282
337
366
311
319
394
334
318
384
363
300
349
377
295
322
378
328
293
362
339
274
332
350
288
296
365
296
282
350
319
270
322
337
265
300
373
276
288
347
307
256
326
324
270
300
346
287
280
353
303
272
325
335
267
300
352
284
288
346
314
271
337
333
264
312
350
291
283
356
306
274
329
330
269
301
360
260
290
347
307
268
324
320
260
295
338
284
274
351
302
271
343
328
267
301
353
264
288
355
299
269
333
321
259
305
346
273
279
350
294
265
340
315
264
304
341
267
287
344
292
273
332
315
257
308
328
270
287
344
291
269
332
307
264
298
334
271
289
352
299
290
335
323
267
318
341
279
291
355
306
282
350
314
255
290
308
209
221
288
244
271
366
365
338
372
362
274
286
347
269
265
348
310
257
311
328
262
284
342
277
277
341
310
257
327
325
252
288
339
265
263
336
293
248
304
314
240
278
333
237
252
317
279
254
296
304
238
298
321
263
263
340
307
262
339
339
285
333
387
310
315
386
340
320
372
368
301
345
384
311
319
381
328
291
365
341
282
329
366
288
299
365
308
283
342
328
271
316
356
266
298
351
309
276
335
323
266
311
339
275
289
357
292
272
331
319
267
305
341
272
290
344
310
278
337
324
254
318
344
272
286
355
299
271
337
318
261
311
339
261
294
349
285
276
344
312
256
324
324
265
289
358
274
279
346
293
256
314
339
242
284
336
262
270
334
307
253
317
324
259
276
338
274
270
341
297
270
304
325
259
287
341
283
271
332
308
248
311
320
259
277
339
274
265
344
301
265
318
343
262
295
354
280
281
344
313
260
330
341
260
298
338
268
249
303
230
204
260
298
278
342
424
363
344
364
309
260
309
310
254
290
337
277
277
341
295
263
313
325
262
290
353
262
280
331
300
253
313
311
241
281
313
252
251
325
263
235
299
286
230
269
312
229
255
328
268
248
316
313
252
312
347
266
299
370
324
302
378
356
313
355
396
303
337
395
328
312
373
342
274
337
352
282
312
366
307
289
361
329
288
330
352
288
308
369
303
298
353
330
286
331
345
281
304
355
308
280
352
311
279
322
335
264
289
355
287
282
346
318
268
329
348
267
301
355
295
283
360
328
280
334
340
274
299
363
291
288
347
305
266
322
340
253
299
344
281
271
343
306
266
326
324
269
297
349
280
287
349
312
272
324
335
266
306
346
287
281
344
328
258
332
325
265
296
346
277
285
352
315
289
337
345
265
313
354
283
297
359
312
275
344
331
268
305
346
242
236
285
224
217
312
351
305
384
436
336
319
355
299
266
320
310
259
297
333
289
277
348
293
282
330
321
249
297
339
273
279
339
305
257
323
320
253
293
335
257
259
331
272
247
301
298
230
265
322
235
259
328
277
248
319
312
261
312
350
287
301
379
329
313
375
365
311
350
391
323
335
390
342
314
373
357
294
349
365
307
318
373
319
294
368
333
283
332
354
282
302
360
297
288
347
328
269
330
352
262
301
355
304
287
365
319
287
323
337
271
294
361
274
288
344
316
269
325
339
262
294
349
281
279
361
307
270
331
330
271
303
355
287
293
346
310
276
329
333
268
304
346
288
277
353
296
277
331
323
276
297
347
269
274
342
305
260
316
329
254
301
344
284
285
358
310
270
336
345
263
296
352
275
281
370
302
262
322
311
232
247
267
215
234
361
337
319
419
383
304
305
345
265
265
333
272
265
313
315
251
296
333
270
278
341
302
270
328
323
276
293
344
278
285
349
299
269
322
328
255
306
341
281
273
337
298
257
316
304
241
282
337
250
272
345
284
266
323
325
267
316
361
296
307
370
331
295
369
351
298
331
374
304
307
372
318
296
352
345
274
324
376
290
300
351
318
269
337
328
263
295
354
266
276
340
286
262
317
320
261
291
334
273
279
344
312
282
335
325
264
305
346
285
282
356
311
274
328
321
254
299
345
274
284
339
295
262
339
316
265
311
344
281
285
364
305
283
344
332
271
321
362
275
312
366
319
275
340
327
271
312
347
282
288
358
300
284
342
330
271
308
355
255
292
346
303
268
334
319
259
306
347
273
288
357
289
281
341
334
277
317
364
284
299
361
313
277
339
317
235
253
271
221
240
358
332
324
411
390
290
317
347
264
292
348
309
279
339
324
263
317
336
270
282
345
294
277
334
321
265
301
348
275
287
345
300
274
328
321
263
311
335
274
272
337
285
260
324
311
253
292
337
255
280
345
296
275
350
334
275
337
370
310
317
404
336
313
381
358
302
349
377
302
319
372
321
298
351
339
273
323
342
281
294
362
306
277
341
323
265
306
354
267
286
347
298
273
350
324
254
309
330
282
288
362
278
267
334
332
269
303
353
275
291
354
299
271
337
322
256
309
338
277
283
356
289
268
335
311
258
312
345
251
288
344
296
274
334
320
259
308
335
274
281
345
292
271
335
314
278
312
343
274
293
356
284
267
330
326
260
312
342
279
284
371
308
278
340
323
265
307
347
265
288
357
302
278
339
315
257
315
351
266
292
357
298
278
355
313
274
322
349
278
303
357
299
280
336
297
209
252
279
225
281
381
331
357
426
349
284
324
331
245
290
355
265
272
333
298
257
317
326
251
290
334
274
266
339
293
255
317
311
249
281
330
252
260
330
273
243
314
306
232
282
311
248
259
317
268
234
311
280
238
286
314
255
281
346
289
292
350
335
294
358
365
300
336
381
322
313
375
332
301
362
344
289
310
359
294
299
364
310
281
339
341
275
315
350
279
293
353
306
273
342
321
266
307
341
272
280
350
284
264
319
309
245
299
343
256
281
340
294
264
342
319
270
315
352
281
307
361
299
280
336
335
263
313
347
272
290
340
296
267
332
312
257
307
336
271
279
347
286
269
329
315
265
308
342
267
288
344
304
269
335
316
260
317
341
276
287
354
291
276
336
317
266
318
347
266
302
348
292
284
350
318
266
330
335
278
312
365
299
291
350
315
275
340
348
271
312
355
291
287
346
308
254
311
294
207
208
276
233
280
370
367
363
392
382
281
299
335
274
264
334
296
255
322
317
269
300
345
275
276
340
296
262
316
323
252
294
331
267
269
332
291
246
310
298
232
268
313
239
242
311
252
237
290
297
222
274
322
244
257
325
290
257
334
321
275
318
367
306
313
383
325
305
359
350
288
335
373
298
300
354
313
277
346
334
283
321
359
300
303
369
313
298
349
342
283
332
359
286
304
359
314
283
353
337
280
325
352
287
294
366
292
284
346
337
281
332
353
280
307
363
309
286
356
330
272
336
345
296
304
364
299
288
358
325
276
333
354
275
306
350
293
285
353
318
272
334
324
268
298
347
281
279
350
302
271
318
327
267
314
354
275
285
345
296
269
348
329
274
318
346
285
298
373
305
288
348
328
274
322
356
257
290
330
260
212
278
282
270
347
395
369
374
410
309
271
333
300
246
304
323
249
291
336
277
278
345
304
256
320
324
262
290
337
271
270
335
291
262
308
316
256
285
330
255
257
324
287
243
295
294
236
265
323
252
259
325
288
246
312
326
262
316
358
299
312
383
338
307
379
374
308
339
397
316
327
384
330
303
366
358
288
340
354
295
311
369
311
289
357
322
277
326
357
275
303
360
278
296
352
322
276
333
336
266
312
345
283
283
353
294
266
339
311
265
312
334
276
289
353
290
278
336
315
265
316
345
253
321
347
283
280
347
308
263
328
322
256
314
331
269
286
353
282
272
343
306
265
318
324
258
296
342
276
281
339
297
255
327
317
260
304
352
294
286
356
308
278
330
328
261
307
345
276
293
346
305
270
331
304
223
249
269
214
257
373
332
344
421
366
289
313
344
253
281
342
285
273
342
321
255
324
333
262
291
346
277
268
337
290
257
309
320
252
289
337
268
282
339
306
258
321
320
246
288
331
267
264
337
284
259
318
311
256
287
343
256
288
349
315
281
353
358
294
338
371
308
309
383
323
302
356
350
282
336
375
295
309
372
319
288
356
329
277
327
348
285
293
364
298
280
343
324
274
325
358
280
310
353
295
284
343
330
275
327
348
288
299
364
303
298
359
327
279
316
343
275
299
344
300
281
339
324
265
317
340
273
297
363
301
283
347
327
281
324
361
275
303
362
310
289
344
337
274
332
352
286
302
369
298
286
359
327
278
326
360
282
305
361
303
287
348
334
262
318
347
264
294
354
283
276
345
312
270
322
345
275
307
356
297
287
345
327
270
326
338
285
294
358
293
255
304
248
207
262
319
285
339
405
378
326
355
334
259
310
337
270
290
355
293
269
346
312
279
312
340
268
292
351
288
277
348
329
257
319
331
258
289
342
283
264
331
296
256
306
320
249
290
332
273
264
319
300
251
307
322
256
279
350
280
281
358
333
295
346
371
306
331
390
348
324
373
348
287
347
357
304
313
369
311
291
362
328
284
332
350
278
307
358
294
290
357
313
264
325
340
264
301
357
272
276
347
303
269
329
339
268
300
350
288
295
347
315
269
333
335
277
305
349
293
286
347
301
276
317
325
269
290
345
280
277
336
307
259
322
324
259
294
341
279
268
344
306
260
320
318
258
292
345
265
277
346
297
264
329
319
255
308
338
282
275
345
293
258
330
323
268
302
344
267
290
346
298
274
329
323
262
307
339
280
288
352
283
274
334
313
276
316
353
288
288
350
298
277
335
325
262
317
336
281
292
372
276
258
304
241
195
249
298
277
327
404
345
337
359
314
254
306
316
255
298
337
274
269
339
295
252
322
308
256
297
336
262
278
335
284
263
310
311
241
287
321
255
268
325
279
253
311
289
245
283
314
258
258
327
272
247
309
308
247
297
336
275
298
361
320
299
372
363
298
351
384
312
320
391
337
308
359
340
281
330
351
285
303
356
308
283
354
321
272
321
347
280
292
355
296
287
347
331
264
315
338
273
301
355
295
283
349
318
267
312
334
273
285
375
280
286
340
324
259
313
337
266
292
344
288
273
337
312
259
314
335
252
285
345
259
275
333
309
264
317
343
266
296
346
288
274
347
313
266
321
332
270
290
354
284
280
347
308
269
318
332
267
302
343
281
276
342
309
264
320
323
265
291
343
275
276
336
293
263
309
322
261
301
345
286
292
357
311
263
334
326
261
299
347
281
283
356
304
263
303
301
201
229
274
226
281
378
383
365
408
365
276
291
343
261
261
340
284
261
320
315
250
298
331
267
278
341
293
254
336
309
254
305
335
267
271
344
267
252
311
307
229
279
319
220
261
314
252
234
308
284
230
277
307
251
267
342
290
275
346
338
286
341
376
307
331
387
339
308
379
357
292
345
372
300
314
379
306
298
364
336
282
334
360
284
320
367
309
293
362
348
279
341
344
285
315
371
288
291
348
317
273
320
341
273
304
347
294
294
354
310
267
330
337
284
299
358
307
294
356
318
278
327
342
271
301
352
301
289
353
310
262
331
330
270
302
356
281
285
360
312
271
330
332
263
304
350
280
287
354
309
264
342
328
271
308
364
276
293
364
312
279
330
341
265
311
353
272
298
347
306
266
325
305
231
252
273
222
252
377
341
350
426
395
310
318
348
268
278
337
300
272
332
320
269
310
341
259
277
346
289
267
327
324
255
297
347
269
280
340
289
265
326
322
256
298
327
249
264
340
284
254
311
295
239
287
322
240
278
345
294
274
339
331
276
338
364
308
330
391
334
316
376
351
305
341
376
297
319
378
316
307
354
339
276
329
342
280
299
360
299
276
344
314
265
316
341
265
293
356
296
292
352
325
264
327
341
264
306
358
284
286
358
304
273
339
341
273
303
350
279
290
352
305
278
337
331
271
315
352
287
291
359
310
276
337
326
277
302
352
283
296
352
304
267
320
338
269
304
339
277
276
346
298
261
327
328
271
309
362
280
290
365
309
279
340
338
268
321
361
288
292
352
288
231
285
258
217
287
372
324
358
433
353
299
339
319
244
304
338
266
293
349
299
267
333
311
263
305
334
266
281
345
286
271
323
317
251
304
334
263
286
342
296
270
343
313
270
307
336
276
288
354
278
278
338
317
263
316
343
272
304
359
309
293
369
335
287
351
364
303
319
385
317
308
375
341
291
344
358
285
319
364
302
292
356
327
269
337
329
274
298
352
288
287
351
312
260
311
338
265
304
343
291
285
343
313
264
324
336
289
300
362
298
284
350
324
274
321
348
270
304
348
295
284
350
321
267
331
338
275
297
366
293
287
344
311
267
326
339
266
304
348
288
289
358
321
265
329
329
273
299
353
286
292
349
301
278
320
333
267
304
345
278
289
347
312
281
337
328
272
310
346
285
282
361
293
296
349
333
256
305
356
276
291
350
312
276
346
337
267
310
349
285
289
362
302
284
349
332
258
295
312
212
226
290
274
279
374
370
335
372
362
281
279
340
287
269
325
315
265
298
330
267
280
334
292
260
330
314
257
306
334
276
281
347
285
266
327
314
255
294
332
258
279
334
274
251
317
302
244
293
319
254
272
340
276
262
338
305
267
324
352
288
323
391
315
316
376
354
301
364
367
305
334
382
322
311
375
333
297
341
350
288
325
375
300
299
355
315
273
334
339
274
304
352
295
288
354
306
270
318
335
260
298
354
286
287
355
325
268
329
336
269
302
352
291
278
357
304
276
323
332
265
300
350
279
282
346
305
262
339
327
268
305
349
285
285
351
306
278
322
336
264
304
348
276
295
335
311
270
324
326
285
299
343
286
274
352
296
284
318
330
261
296
343
279
282
340
308
255
327
326
257
295
336
279
267
345
288
264
316
310
257
298
346
262
285
356
304
274
341
325
257
315
332
270
287
353
294
276
336
296
237
254
266
189
237
334
302
318
405
385
289
320
340
244
280
336
265
259
324
291
253
299
319
262
281
341
277
270
334
305
253
311
325
247
287
331
272
264
326
293
251
303
297
239
266
326
247
254
320
282
241
298
305
236
278
325
274
271
343
307
276
346
352
298
322
381
306
320
383
340
307
354
364
288
334
368
302
302
360
318
283
342
334
283
309
355
291
287
355
312
274
326
333
268
302
352
277
284
347
306
263
326
326
261
293
351
279
277
344
296
264
322
324
256
301
349
284
285
356
294
268
337
327
270
304
348
280
281
348
300
269
325
324
245
302
335
272
288
341
301
271
341
312
265
295
340
276
281
348
296
285
321
321
260
302
349
269
287
347
304
270
334
310
265
296
339
278
274
336
303
273
324
341
265
309
349
287
289
353
292
268
337
327
269
309
353
268
269
320
245
196
262
270
242
344
389
359
379
407
325
271
330
301
250
293
333
266
282
342
282
274
322
311
259
305
334
270
292
344
296
259
324
303
245
300
311
256
264
327
259
244
306
282
236
280
306
232
262
318
266
251
321
293
245
306
324
271
295
363
299
297
375
338
302
362
381
307
343
389
329
317
388
350
292
344
348
290
322
367
299
295
366
324
286
334
348
280
311
368
284
291
357
324
284
332
333
290
299
359
289
282
354
314
276
322
335
262
301
354
293
291
351
325
270
331
350
277
308
360
289
284
355
315
269
327
332
264
306
355
284
290
355
311
270
345
327
273
314
353
287
292
363
296
283
344
333
270
312
356
284
294
349
314
273
335
327
281
300
343
283
293
363
316
278
338
341
264
313
351
278
290
348
305
269
336
331
259
296
328
259
251
301
226
202
276
325
297
352
436
355
330
362
299
253
318
303
251
299
336
272
278
354
277
268
325
318
255
301
336
261
281
337
286
258
319
308
249
298
324
264
271
335
283
263
316
300
250
283
324
246
262
325
264
256
316
303
242
294
330
276
291
363
314
295
366
354
300
347
385
304
326
386
328
308
368
358
289
345
354
281
310
372
304
285
359
316
277
321
344
269
298
356
284
286
346
316
267
337
342
271
311
361
277
292
365
306
274
337
337
268
310
359
287
301
350
296
280
335
334
264
316
344
265
289
347
290
261
331
310
272
304
343
275
284
350
296
275
328
325
261
308
345
275
288
352
309
269
346
323
270
327
346
274
291
360
297
283
343
329
261
319
340
276
303
351
300
276
351
319
267
319
346
287
300
367
294
294
346
332
281
323
353
285
302
357
312
274
335
297
225
249
291
226
291
395
355
357
405
360
273
310
337
261
288
347
303
270
339
316
256
309
338
264
277
358
269
275
336
307
263
316
336
262
308
349
291
271
338
310
255
309
337
254
284
342
280
268
332
306
257
306
330
248
289
342
296
287
356
339
289
351
369
310
337
397
339
319
385
351
306
352
372
292
325
382
316
302
370
330
278
342
341
280
303
356
291
282
358
305
268
323
335
261
305
350
284
287
345
315
268
331
332
272
308
346
289
284
353
298
278
330
336
263
297
345
280
280
339
311
264
321
327
264
298
344
286
274
352
309
274
324
339
274
302
358
258
285
347
302
270
329
328
264
306
349
283
282
357
304
269
332
321
269
309
357
279
292
359
299
270
326
328
254
306
344
268
278
347
294
262
330
321
261
303
350
278
287
348
307
277
332
328
249
306
338
276
286
346
301
249
301
251
191
244
305
275
322
413
382
338
359
327
256
299
331
260
281
347
274
260
331
301
252
303
328
260
280
346
281
263
319
295
246
296
322
255
279
330
279
256
320
294
248
289
320
244
262
330
274
258
308
298
246
303
326
256
278
339
296
278
351
335
289
338
370
305
319
390
330
310
368
358
293
343
376
302
326
374
308
291
365
334
287
334
350
276
296
363
297
286
344
325
274
318
345
260
299
352
277
277
341
316
264
324
331
275
293
353
288
284
347
308
270
315
335
267
298
348
290
289
336
318
261
328
330
273
293
347
289
278
343
307
264
316
325
257
292
350
277
278
338
314
253
321
321
256
292
342
272
270
346
295
265
321
321
255
302
353
268
282
340
292
257
333
318
260
294
333
251
271
342
281
269
321
312
262
300
336
261
282
339
293
267
329
307
265
314
325
253
254
295
214
186
264
259
266
341
404
360
359
371
287
267
321
294
249
311
331
255
289
342
283
273
341
307
259
305
328
253
290
349
260
271
332
299
251
314
314
248
270
328
255
251
316
280
240
290
307
240
280
324
266
275
327
300
259
325
338
276
315
371
320
316
385
348
314
365
377
305
337
382
323
310
372
341
287
344
347
280
317
372
295
295
366
334
291
337
346
273
317
363
299
296
366
323
290
347
337
275
318
354
288
291
358
304
278
337
335
265
298
348
277
291
351
301
276
341
332
275
313
345
291
282
353
300
283
338
319
268
301
343
266
288
346
300
268
333
320
258
309
331
279
271
346
272
264
325
312
260
297
342
259
281
337
293
269
337
322
263
316
339
279
286
358
300
267
334
314
269
311
349
256
289
332
261
220
264
260
226
328
375
348
387
426
340
288
335
303
250
291
333
265
279
341
292
287
331
309
246
313
326
267
280
343
283
263
338
298
256
300
328
254
290
340
254
257
317
279
223
287
304
226
266
316
245
247
326
282
252
310
344
259
305
366
283
309
381
334
307
366
381
297
349
391
314
323
392
332
304
368
357
293
343
372
288
310
382
302
298
356
341
280
325
360
270
311
366
297
289
361
319
271
335
340
284
304
364
297
292
362
310
276
331
346
271
316
356
293
310
353
320
275
337
326
271
300
347
283
281
352
298
274
322
325
267
301
343
283
292
349
308
258
329
320
263
298
334
275
275
347
293
268
318
324
254
300
350
273
291
355
311
270
347
329
270
318
361
276
291
366
308
272
357
323
255
293
313
213
221
282
267
280
377
380
348
367
367
280
274
330
271
279
320
314
248
294
335
260
272
340
281
256
319
315
248
298
326
268
275
342
282
253
325
302
255
299
334
262
282
342
282
263
327
311
251
309
329
260
285
344
291
276
355
318
277
330
357
293
322
390
325
321
373
355
299
352
370
306
330
382
324
305
366
337
294
332
352
294
303
360
303
289
345
331
275
324
348
259
298
350
306
277
344
317
263
323
343
274
296
360
291
294
355
320
278
327
350
270
304
358
292
286
353
317
265
336
326
269
306
352
283
280
352
301
278
336
330
267
314
354
284
298
362
319
284
350
340
266
318
358
275
294
361
263
290
358
298
278
334
319
265
310
343
282
293
354
284
289
334
319
261
315
338
281
298
352
302
277
349
322
271
323
342
271
292
359
300
282
333
284
213
247
305
214
288
384
320
352
410
341
270
325
311
259
293
354
281
274
336
294
260
319
324
245
295
338
277
283
334
302
260
323
315
264
297
335
273
269
342
286
259
310
305
254
285
340
248
282
329
294
253
315
307
249
304
337
274
291
366
313
298
375
347
305
351
399
299
335
398
338
318
375
353
292
353
366
299
317
377
304
299
362
334
289
335
355
274
302
365
291
293
349
324
277
323
341
269
302
354
295
285
351
319
269
334
337
273
299
362
284
283
353
313
275
322
335
259
302
348
282
282
344
304
265
335
318
264
309
345
278
286
344
298
277
325
340
261
308
340
275
289
347
304
264
334
315
262
305
338
280
279
353
294
272
327
319
262
306
350
260
293
346
295
273
340
319
263
318
333
270
285
352
285
277
351
312
275
326
344
269
299
354
272
301
340
314
262
334
335
273
290
340
264
233
266
235
202
286
356
305
362
432
338
289
337
296
242
310
323
272
301
339
289
274
341
298
258
308
332
268
291
345
269
272
332
302
246
307
316
257
278
333
269
257
325
289
247
293
311
241
278
322
263
260
314
293
246
304
313
263
290
354
282
295
360
331
301
342
371
305
329
380
333
317
369
347
290
347
357
296
309
366
307
285
355
324
275
314
352
268
299
361
286
280
346
320
260
321
333
273
299
355
283
277
344
308
279
321
341
263
297
343
289
285
344
316
266
320
340
260
289
350
288
275
337
310
263
306
344
254
291
343
266
271
327
315
257
313
330
280
281
351
291
271
330
315
264
305
341
261
286
348
289
268
335
313
255
309
334
268
284
359
296
269
331
313
261
310
345
262
290
343
293
276
333
314
259
306
336
262
289
353
295
285
341
320
274
305
344
280
292
349
302
275
334
329
261
313
331
257
252
286
227
203
298
332
302
379
451
329
328
360
289
261
320
315
244
305
325
262
286
335
282
260
340
296
254
309
328
257
284
344
278
268
323
289
239
297
311
243
267
315
252
241
312
275
235
287
294
229
259
319
258
253
322
298
261
314
335
284
317
362
313
306
380
352
305
357
369
306
331
391
310
311
373
336
303
344
363
276
321
362
303
294
369
318
285
355
339
284
314
362
296
295
364
314
281
329
341
269
315
351
269
286
345
309
269
329
322
277
296
344
285
281
351
304
281
322
331
267
303
348
286
285
344
314
276
334
331
255
296
346
279
277
351
303
272
327
336
264
302
354
272
285
353
307
269
338
337
267
315
355
284
281
359
287
268
331
317
266
302
341
267
288
344
289
285
340
325
267
333
339
278
292
350
300
279
343
314
273
315
331
265
261
306
226
207
288
305
298
372
443
340
361
380
295
269
335
293
254
311
322
262
286
350
271
272
343
299
257
321
323
253
298
333
274
275
337
293
256
323
310
239
277
322
252
260
315
265
239
285
296
238
273
315
261
260
326
297
275
325
330
273
310
370
316
311
384
350
311
369
389
295
345
392
320
318
386
342
297
374
355
298
322
377
311
302
376
318
289
342
347
266
321
359
290
304
358
321
280
342
333
271
306
354
289
295
358
309
283
330
336
280
307
352
291
290
349
319
270
338
332
271
303
343
284
281
354
304
273
332
356
262
298
357
268
284
350
304
266
334
323
259
299
346
279
271
353
296
266
324
322
255
299
339
263
287
339
295
267
324
322
264
310
341
279
284
346
296
272
330
323
270
298
349
280
284
333
271
224
260
258
203
284
366
326
356
433
364
311
334
314
254
291
345
268
283
351
295
274
339
321
262
314
347
251
288
350
276
264
331
301
253
297
329
254
275
333
271
267
322
307
253
298
326
262
278
331
285
256
325
299
259
295
323
266
283
354
301
288
353
345
290
339
375
298
328
384
329
301
371
342
292
349
364
298
309
379
308
300
362
332
282
334
349
277
312
353
293
290
372
316
272
332
332
272
302
343
287
282
352
310
285
325
338
282
312
354
289
291
352
310
273
328
336
267
304
346
297
284
350
299
266
324
326
263
297
357
273
287
354
306
275
340
337
263
324
359
294
297
364
317
277
344
332
279
311
368
272
297
362
312
288
339
324
268
312
349
285
291
355
314
278
344
325
265
311
341
293
296
363
308
287
349
340
279
321
361
282
304
365
309
280
348
333
263
310
326
250
233
286
216
224
320
340
308
372
409
305
306
342
280
280
340
286
274
308
251
303
319
258
285
338
284
267
341
299
262
316
324
276
281
344
278
272
334
309
265
314
319
252
278
325
271
269
331
297
254
316
313
260
295
353
275
294
363
317
302
366
356
292
343
392
302
337
392
328
315
379
364
295
353
371
302
317
383
307
299
363
331
281
318
344
275
314
356
295
288
344
322
274
330
334
279
302
354
298
284
354
318
276
321
338
273
298
355
296
284
342
320
263
318
333
262
293
347
283
267
349
308
260
318
326
262
289
357
263
301
354
308
264
323
325
262
305
344
291
280
351
310
272
334
327
270
294
354
277
289
347
302
281
329
332
268
303
341
294
282
348
314
274
326
325
273
290
345
287
277
347
316
265
312
332
260
297
346
285
287
349
323
274
337
328
270
299
354
267
280
347
302
270
318
314
228
240
271
203
238
336
321
302
401
377
287
308
333
266
271
338
290
268
318
312
266
289
334
264
287
332
293
258
321
312
260
297
333
272
282
339
288
258
315
314
247
285
330
255
266
327
294
245
308
301
236
285
322
256
259
340
285
264
339
329
278
321
366
298
321
384
341
312
378
370
299
345
368
306
317
379
316
299
367
344
288
312
356
286
294
358
306
289
331
330
275
326
