262
308
318
272
282
327
279
268
329
304
268
311
317
265
291
340
278
282
335
298
276
316
317
264
299
340
279
283
324
296
269
305
312
262
291
337
270
280
317
294
268
316
308
257
298
312
263
274
321
276
256
310
300
256
299
327
274
281
341
296
283
348
312
268
298
329
266
288
340
279
288
332
310
258
282
279
197
230
283
256
301
365
367
328
341
332
257
285
317
260
273
320
297
255
306
311
251
289
319
279
270
330
296
261
305
306
260
277
324
263
265
324
285
260
295
304
250
272
315
258
257
302
279
243
291
305
247
271
314
261
266
343
299
260
325
326
283
314
351
306
298
356
316
284
340
329
287
310
355
292
296
352
305
282
325
331
281
312
344
287
297
341
312
286
327
330
275
308
348
280
290
333
301
269
320
325
264
304
325
274
280
333
293
281
329
309
260
305
318
280
291
340
299
275
332
316
269
308
329
275
287
345
283
280
337
295
269
307
323
265
292
339
280
285
338
306
270
319
317
265
298
333
274
286
341
310
272
327
316
262
300
323
277
282
331
296
272
326
309
278
305
337
277
284
345
293
277
342
310
273
312
320
271
285
340
284
279
333
304
273
316
335
279
298
350
289
295
349
313
283
335
335
282
320
345
300
307
353
317
292
329
305
229
264
291
238
311
372
363
371
408
372
297
323
334
271
294
349
294
286
342
315
275
319
326
281
293
338
293
281
337
307
274
310
326
269
298
338
284
280
320
294
261
302
320
257
284
317
266
266
318
296
262
314
312
261
299
340
284
303
355
333
308
368
357
320
355
378
337
339
385
337
320
373
357
319
343
371
304
321
372
320
310
359
334
307
328
354
289
309
358
310
300
344
344
293
324
349
274
315
351
306
301
344
317
282
333
337
285
316
350
301
294
357
315
294
333
343
289
305
348
282
291
351
316
287
323
333
278
307
353
301
298
346
317
296
326
334
269
313
349
287
305
339
305
299
348
337
278
305
335
276
272
332
281
231
287
284
249
304
361
326
325
369
329
296
365
337
295
327
287
238
270
293
228
240
314
285
280
320
307
269
325
355
307
280
292
258
258
302
289
250
302
306
248
269
300
250
230
294
313
315
321
305
291
348
362
279
272
349
310
301
370
403
363
334
334
285
262
300
232
208
224
248
219
271
325
341
388
403
346
334
354
344
299
322
351
294
303
349
288
265
348
380
348
366
365
306
331
372
322
287
336
316
278
341
310
226
305
350
276
240
303
349
304
310
313
296
317
300
263
248
314
267
228
324
317
289
365
405
373
363
427
414
397
424
445
449
475
493
457
451
471
454
424
462
454
407
442
456
430
430
470
445
414
470
463
437
477
482
455
455
503
480
479
520
499
466
514
516
448
452
485
453
428
453
424
388
408
417
348
359
390
340
327
368
349
311
339
348
302
316
334
289
275
330
325
286
334
320
273
274
302
258
247
299
273
231
266
270
200
243
295
235
210
266
264
230
274
296
237
241
269
219
191
282
269
207
267
271
188
247
289
249
209
263
251
212
272
281
247
293
314
224
200
287
238
198
262
254
213
233
256
205
190
230
180
156
210
205
174
159
155
82
89
147
124
103
172
171
116
183
196
141
178
208
171
166
236
257
177
210
242
209
245
244
187
169
226
274
255
302
332
276
274
302
236
202
273
247
206
268
280
201
231
286
207
189
262
241
222
265
259
225
235
311
252
224
273
261
232
222
244
221
262
312
267
257
307
301
262
329
331
265
318
378
331
346
398
357
332
377
393
374
419
427
407
419
459
432
401
466
467
403
419
445
386
397
474
426
350
398
372
335
365
402
347
357
398
355
346
386
373
332
354
377
318
333
357
317
298
344
334
285
325
333
272
307
331
293
280
325
303
266
321
331
286
294
334
293
275
330
300
269
312
318
264
288
331
276
275
330
289
268
309
310
254
282
318
256
265
312
276
257
297
299
234
283
305
257
264
301
274
246
301
290
242
278
299
257
261
309
268
252
314
283
250
291
309
261
268
326
274
264
317
291
255
284
314
249
271
312
265
267
311
302
259
302
318
262
293
330
282
274
327
300
256
312
308
261
279
299
238
222
265
241
237
331
343
331
351
364
291
275
316
274
256
302
301
262
280
313
266
271
326
284
272
308
299
262
294
318
264
284
329
289
266
304
300
252
291
315
258
277
314
272
253
310
291
251
290
314
267
281
325
277
267
335
312
277
332
332
287
316
365
313
314
360
324
301
337
348
282
314
345
288
288
335
317
283
332
337
275
315
346
300
295
342
319
282
342
332
276
316
342
289
290
340
302
278
332
322
277
304
338
290
286
338
294
283
329
316
277
300
335
279
288
337
289
284
322
303
267
304
337
273
297
338
296
280
339
314
268
322
333
280
312
340
299
297
347
315
274
342
334
287
311
348
301
298
355
307
271
325
324
289
308
354
308
305
353
323
291
334
371
304
318
349
294
312
351
325
295
330
312
243
209
155
154
224
358
342
279
379
382
335
356
346
300
298
309
240
253
311
244
237
261
272
208
237
283
230
199
250
248
282
320
329
275
304
325
237
201
202
192
182
220
259
252
319
311
261
263
305
245
181
213
192
146
165
165
116
124
154
123
115
165
165
148
191
210
192
191
243
219
217
284
300
308
325
341
405
499
526
471
485
539
474
421
494
507
485
562
591
535
515
546
541
512
522
516
416
430
495
452
477
508
517
490
490
480
446
453
460
424
406
423
374
375
376
402
402
412
428
375
370
411
368
318
353
416
385
408
419
344
369
415
385
368
399
392
330
333
397
375
371
390
351
338
380
377
335
354
333
307
355
399
351
316
315
348
324
358
345
311
321
351
324
309
346
337
319
349
355
319
333
368
327
349
365
341
319
344
358
296
288
364
319
304
319
317
307
334
335
275
299
315
280
279
300
293
261
293
283
262
287
303
287
299
336
301
274
318
313
280
305
322
292
292
342
313
300
328
311
282
296
323
298
307
349
324
293
305
291
280
309
319
256
270
311
273
275
328
304
248
262
262
225
272
338
318
322
370
339
294
313
301
263
275
307
276
265
305
275
268
302
300
271
291
314
267
276
311
277
282
318
308
257
297
340
290
289
319
307
293
327
307
268
308
313
273
288
312
280
260
312
294
262
296
307
283
290
332
305
304
358
339
312
345
366
313
340
372
343
340
367
344
331
350
366
325
343
368
335
334
353
333
316
358
375
326
346
356
325
320
369
336
297
356
343
307
330
341
308
303
342
314
282
316
305
280
300
322
284
280
319
292
281
309
310
282
298
321
279
293
314
276
275
304
310
260
290
308
272
285
307
280
256
290
282
264
313
298
272
276
310
295
287
316
284
256
329
307
289
297
338
301
305
361
350
326
367
354
334
355
376
325
324
362
307
273
293
273
223
243
268
226
259
297
273
255
299
309
245
265
274
223
249
309
286
273
308
255
181
203
183
114
130
179
141
131
193
168
120
187
213
150
142
196
160
150
182
174
130
144
178
123
159
206
156
150
180
165
123
187
193
142
182
207
175
188
244
221
199
261
255
217
254
304
262
270
338
316
299
367
370
337
370
409
355
365
428
375
355
406
392
345
376
394
327
337
375
335
304
347
342
286
318
348
286
295
343
299
259
322
315
261
312
335
303
314
359
330
303
363
343
303
346
359
310
329
370
321
305
348
318
283
314
328
283
288
333
287
278
317
292
259
296
319
258
286
326
280
283
322
308
268
321
330
277
312
329
288
277
334
312
268
331
321
276
309
327
283
288
340
294
267
318
309
267
286
318
285
288
329
281
271
319
300
266
300
330
273
291
337
284
278
321
306
276
306
326
275
302
336
280
278
302
260
224
256
288
282
344
384
361
337
354
316
268
313
319
274
306
336
295
282
334
304
270
320
316
271
302
337
280
287
338
293
276
320
312
271
298
332
270
289
321
281
270
309
301
239
283
306
258
269
306
279
267
314
298
258
304
323
286
318
349
315
309
363
343
312
352
359
328
327
372
326
317
363
335
300
337
343
295
312
350
287
296
340
312
285
321
335
285
303
339
272
284
327
293
268
304
304
260
289
328
262
281
319
280
257
307
297
256
301
320
269
280
324
287
267
331
308
261
308
333
274
291
337
272
265
301
261
248
269
274
200
220
305
274
306
339
337
293
272
228
198
284
337
283
272
275
263
265
311
289
246
299
327
284
286
318
303
300
345
314
293
340
338
284
281
349
298
281
323
292
240
267
273
224
252
291
242
220
262
244
219
236
238
171
175
191
139
119
159
133
88
126
111
35
62
88
78
148
207
216
199
269
284
246
245
299
267
248
338
314
207
328
393
312
375
458
409
419
477
427
407
443
457
417
452
460
383
443
566
533
513
562
560
519
537
531
464
474
494
433
390
467
498
461
482
479
413
438
476
436
394
431
444
443
457
442
388
436
484
415
396
437
403
378
420
423
370
387
423
379
339
417
403
380
428
409
364
388
423
386
375
388
353
340
372
361
325
359
352
301
328
355
310
303
341
366
327
369
368
317
347
365
310
288
295
271
314
366
301
233
306
390
340
327
362
319
305
335
331
302
324
350
307
315
345
309
306
332
317
280
291
319
304
317
346
304
299
341
320
270
309
338
266
300
332
244
294
357
318
299
336
306
263
293
286
248
254
314
294
252
281
268
272
283
311
257
274
302
284
304
334
307
278
283
282
221
228
276
263
247
321
449
377
371
345
272
303
324
292
278
318
334
294
335
332
299
325
353
322
299
348
321
307
336
316
296
291
309
285
248
325
301
270
308
314
271
292
303
268
272
295
274
288
332
290
247
297
302
275
282
302
268
269
336
309
288
303
278
355
356
337
327
346
375
353
318
351
365
328
329
366
332
315
362
321
283
322
335
268
295
330
271
239
266
276
249
247
274
240
239
268
214
203
234
232
210
237
262
230
252
269
235
245
286
271
250
298
281
234
307
310
279
298
319
315
288
328
309
295
325
354
318
319
351
312
318
344
346
318
377
391
334
330
347
326
314
334
335
275
274
330
300
291
309
235
232
316
301
254
267
263
244
254
268
250
231
267
270
228
282
288
262
259
275
237
226
272
282
275
284
304
265
248
313
258
271
322
288
251
287
301
242
248
257
207
187
194
169
145
189
229
213
262
294
228
238
277
235
205
242
238
210
236
248
221
231
263
234
219
269
254
236
253
274
272
273
302
277
267
295
280
258
284
300
241
246
296
258
236
264
305
257
280
292
248
265
288
264
255
291
287
262
306
316
290
306
339
322
298
352
341
316
348
348
321
324
359
320
320
354
327
300
321
326
297
315
347
305
301
335
308
303
332
340
305
325
345
315
314
338
303
285
326
332
292
328
335
293
303
326
307
285
330
321
290
322
329
296
303
332
298
284
326
307
283
311
321
289
299
324
288
283
317
300
278
305
316
277
297
324
284
284
311
308
276
309
319
287
317
348
312
306
344
335
305
340
342
311
328
345
325
327
354
335
301
357
366
345
367
392
362
356
391
339
319
360
341
301
311
328
281
290
309
268
265
285
282
260
287
303
261
273
306
276
255
290
298
266
302
290
258
297
331
294
274
309
269
229
274
289
285
340
402
369
384
415
360
326
332
328
308
310
344
290
286
321
299
275
320
330
287
314
331
294
302
332
311
286
320
312
275
300
306
287
302
298
279
289
325
291
250
272
279
246
245
280
242
231
271
267
233
251
301
286
303
330
303
303
338
340
305
331
343
302
306
345
318
290
333
327
302
338
352
327
345
368
344
334
383
361
345
383
384
363
382
403
375
370
403
367
349
376
363
333
351
376
319
319
346
310
297
343
353
293
300
321
285
296
316
291
278
308
297
261
303
314
283
284
314
278
263
308
298
268
286
305
280
291
322
292
286
333
311
301
340
350
322
341
386
355
347
395
390
374
394
409
374
403
436
382
384
404
371
362
391
393
354
377
394
354
363
387
354
333
373
374
343
369
370
336
348
376
348
318
363
342
325
349
345
316
317
353
346
332
372
348
324
345
353
324
328
366
326
312
320
310
289
282
249
245
291
347
337
359
395
377
330
329
331
280
298
307
258
238
234
199
161
166
133
102
163
171
155
179
200
194
183
230
200
155
205
226
198
207
256
238
223
255
234
230
253
272
240
252
281
242
240
284
275
247
286
307
265
290
321
288
301
339
332
298
341
348
294
309
328
290
275
306
294
268
314
287
272
278
288
262
247
305
250
232
266
263
254
288
311
280
300
342
312
296
326
324
275
284
306
256
264
301
271
243
278
281
258
291
310
277
304
336
306
287
342
325
288
353
347
307
319
352
315
286
317
294
273
301
302
270
272
311
280
281
331
324
300
320
332
309
333
364
320
329
369
337
315
345
354
315
341
375
328
342
372
337
328
359
348
304
347
359
307
325
350
316
301
333
320
281
301
306
279
288
301
301
297
325
286
267
306
316
286
280
310
252
223
243
203
201
267
310
293
332
341
274
233
248
213
193
229
246
208
245
264
222
240
283
272
235
278
273
228
259
274
249
234
266
244
234
274
257
238
278
298
264
261
289
254
252
290
282
254
278
301
257
273
310
283
276
313
313
281
308
335
297
321
348
322
304
339
342
303
324
338
308
329
347
319
310
348
324
289
329
321
301
311
330
310
302
348
317
295
333
337
309
328
351
319
319
351
318
300
335
331
293
309
331
287
300
333
300
283
319
314
276
308
328
280
295
313
287
283
324
316
272
316
328
295
306
328
304
307
330
320
292
328
334
309
310
340
304
289
332
327
298
321
316
288
312
335
294
297
329
301
281
312
320
267
297
319
280
285
305
299
293
317
318
281
307
324
289
294
324
301
285
316
309
282
310
317
286
303
333
309
301
335
315
300
316
327
297
302
345
293
295
341
322
299
317
336
297
299
313
249
264
305
324
321
371
407
355
350
339
306
332
354
312
308
352
349
286
297
343
324
314
339
311
313
340
316
307
321
338
290
289
371
328
317
355
380
339
352
385
356
354
368
326
286
294
308
253
276
281
237
250
272
243
230
276
271
233
280
313
280
291
351
321
299
308
305
307
345
349
317
330
345
316
322
347
354
342
373
385
343
362
373
353
344
375
362
331
366
363
329
352
363
335
327
367
347
312
358
357
334
360
390
363
360
410
378
363
401
394
370
386
414
376
391
430
403
393
421
414
387
423
467
444
462
505
464
415
464
456
425
473
470
432
396
418
398
374
409
394
338
335
327
297
295
295
276
255
272
220
192
218
217
170
179
208
156
156
171
97
52
119
183
148
179
225
180
184
220
223
187
212
250
224
259
271
229
233
263
249
226
264
243
208
259
290
256
268
286
267
256
298
279
245
270
288
238
249
328
289
269
315
308
279
298
318
274
288
322
276
237
270
268
238
254
295
311
333
384
360
337
345
329
275
313
336
299
319
336
320
302
343
324
299
338
321
291
292
306
263
280
334
313
285
315
331
298
304
358
331
338
363
351
357
384
398
356
391
419
374
362
335
289
286
331
350
315
330
338
304
288
316
289
277
315
290
264
288
308
271
258
300
262
255
303
300
275
297
314
277
302
336
291
309
333
320
273
314
334
286
304
322
302
291
322
315
292
335
337
302
313
342
313
288
334
311
299
320
322
293
301
325
287
291
336
306
290
308
291
276
318
358
312
312
348
320
302
334
336
288
320
338
309
320
337
328
296
327
348
307
338
349
327
338
350
316
305
344
333
302
337
342
302
319
343
320
306
355
338
298
330
337
313
335
360
326
313
342
319
298
324
331
294
313
341
294
306
340
319
298
319
331
298
324
343
302
306
332
317
289
324
316
280
310
321
297
297
331
301
278
325
317
274
296
327
293
296
333
302
280
314
299
265
278
279
226
231
274
271
301
341
362
337
330
317
280
304
336
308
304
322
314
276
311
323
283
302
313
296
282
312
297
271
307
317
284
299
316
284
280
316
283
265
311
302
275
283
297
256
254
283
264
252
294
256
239
262
282
278
307
344
318
288
327
331
297
330
344
300
307
334
310
286
304
301
269
314
310
282
308
327
308
292
329
314
286
343
360
311
311
346
313
299
347
326
312
360
342
298
330
363
315
310
335
317
307
329
329
282
315
332
282
300
325
319
306
327
333
292
319
333
295
313
315
269
254
306
302
272
309
310
274
282
321
285
283
335
316
283
342
317
294
311
339
319
299
339
311
284
325
331
302
314
340
299
319
351
311
306
330
325
303
320
338
289
304
331
307
276
297
304
281
331
336
286
305
353
333
308
346
328
302
329
330
297
310
360
341
324
353
341
326
344
347
295
302
373
322
298
320
306
289
307
336
280
296
316
259
236
250
228
217
291
300
283
343
409
354
343
339
308
295
343
336
300
325
347
323
319
373
361
344
383
391
368
374
399
360
357
373
381
351
350
362
321
334
348
294
291
323
293
270
331
311
254
308
314
302
310
332
301
270
333
342
297
338
353
330
335
375
345
332
374
362
332
351
353
315
317
353
327
307
344
332
304
319
344
288
299
334
283
286
316
305
279
310
320
279
302
320
286
276
305
318
265
307
333
299
310
337
302
292
327
307
294
336
324
305
338
349
310
308
342
310
294
329
305
284
307
320
273
282
314
273
262
303
279
239
267
295
245
283
304
294
285
296
300
263
278
293
266
274
291
279
265
317
316
286
336
315
286
300
319
287
272
315
293
278
307
311
284
293
333
289
283
323
299
282
309
322
282
294
314
286
289
320
305
299
323
331
291
305
327
294
298
316
296
275
312
312
284
313
317
296
289
343
319
294
329
306
285
311
314
289
279
319
286
265
294
249
214
247
255
262
306
361
349
354
358
315
298
309
303
269
303
340
294
289
325
288
288
332
351
293
321
326
275
290
320
311
283
321
313
289
306
317
297
282
311
292
270
310
285
279
310
320
275
274
325
306
281
315
307
277
308
321
294
315
351
317
307
345
363
328
355
367
335
355
376
340
329
360
345
312
348
343
311
323
347
317
301
343
311
290
321
330
290
290
314
303
306
322
311
299
314
324
288
308
337
296
300
327
307
284
313
320
288
309
328
286
287
316
289
288
326
299
254
302
308
274
281
316
297
266
324
316
284
313
335
299
304
347
313
301
338
314
296
326
335
284
301
326
295
294
324
308
286
319
324
279
295
325
285
278
302
281
255
311
309
274
297
294
282
289
342
303
279
333
321
286
315
332
308
304
341
316
302
342
325
298
315
331
292
292
334
304
280
327
315
284
310
320
282
297
318
289
281
314
310
277
314
319
278
299
330
296
286
328
312
274
318
309
287
295
324
267
230
272
249
250
317
345
325
350
366
304
285
311
288
276
300
313
280
301
324
289
297
317
302
273
307
316
277
311
327
295
293
324
304
273
313
308
281
300
322
287
279
320
285
262
298
286
269
290
292
274
275
317
293
278
316
310
282
302
329
294
302
348
321
317
343
334
321
345
350
305
318
342
317
301
329
330
289
327
327
286
303
335
309
295
340
320
290
317
303
292
301
325
284
271
322
301
274
301
316
290
296
311
295
300
320
291
279
309
325
294
312
320
291
303
337
312
300
326
316
291
319
326
292
299
323
302
287
328
315
284
327
335
298
310
337
293
284
326
299
284
314
319
289
291
324
297
287
320
299
269
298
321
278
298
335
295
293
327
314
312
320
324
285
304
328
303
313
311
304
298
330
319
283
310
326
291
291
326
302
275
315
301
276
305
310
275
278
309
283
280
316
298
273
295
316
274
292
331
292
292
324
309
298
316
321
279
299
334
293
288
317
320
278
311
295
239
249
271
252
281
347
345
342
370
337
282
287
310
275
286
326
317
291
324
316
286
315
328
299
300
332
305
299
326
341
281
309
331
288
314
332
312
295
321
321
284
313
315
277
291
304
280
264
305
294
256
289
295
263
278
304
283
280
331
315
295
332
336
307
323
351
322
335
359
317
309
352
356
331
344
357
319
333
351
317
306
329
318
282
318
331
285
291
319
306
281
322
307
270
319
333
298
301
329
305
282
324
310
279
309
314
289
295
324
297
286
332
312
289
311
338
300
301
340
295
285
325
311
274
292
311
276
288
328
296
301
328
311
300
327
324
281
297
317
297
300
325
314
294
333
304
281
330
359
326
331
378
348
322
357
347
325
346
359
319
317
369
333
330
370
344
315
343
375
330
325
361
323
308
344
322
283
316
326
273
277
315
275
263
283
269
235
273
279
263
274
299
261
256
294
277
236
278
277
253
289
301
267
257
297
268
230
260
240
213
229
279
286
312
367
338
290
302
298
260
304
313
279
310
329
305
287
316
312
289
327
348
315
335
365
342
328
350
348
324
360
364
336
341
354
315
291
340
316
278
316
309
271
274
302
266
250
302
262
242
278
290
258
280
316
281
310
338
320
308
345
356
315
347
365
325
335
361
348
319
350
345
300
325
342
295
298
348
305
285
336
324
294
310
327
290
294
327
295
290
328
314
291
311
335
286
299
329
284
288
319
313
286
302
311
266
295
321
297
283
310
295
278
324
318
285
303
315
291
282
314
284
255
292
301
285
301
326
286
268
319
299
280
306
309
280
291
319
274
284
319
295
265
304
319
273
293
331
298
298
325
300
299
347
342
293
316
322
293
293
334
312
300
327
300
262
290
322
297
297
343
311
289
333
325
303
321
334
297
308
343
304
300
331
321
291
314
328
284
310
334
311
304
339
335
294
332
346
311
341
363
334
327
367
351
313
358
320
266
276
291
287
312
369
359
348
363
330
296
309
321
290
290
329
314
288
318
324
281
294
331
294
294
318
302
278
323
320
277
301
315
281
292
317
295
273
310
310
273
303
309
280
296
319
290
272
313
292
264
282
312
294
294
331
298
308
354
332
315
338
356
318
340
373
332
314
346
337
312
348
312
351
346
309
325
342
296
304
347
316
309
330
319
289
321
335
286
306
325
297
289
323
319
284
312
319
275
297
314
293
280
312
300
268
300
300
274
298
309
286
276
316
293
282
328
326
289
310
347
313
303
345
318
299
337
332
310
317
334
303
316
347
309
288
330
328
291
322
348
296
303
331
307
299
328
323
291
317
337
298
325
326
302
287
315
313
267
304
286
259
280
326
296
270
326
309
296
337
335
300
308
332
301
290
333
312
285
305
319
286
291
324
275
274
299
275
264
277
277
258
287
301
258
271
313
290
258
295
293
253
291
300
269
283
309
278
254
295
287
241
240
243
228
245
322
315
322
403
375
321
310
315
282
277
321
286
280
314
305
280
286
332
286
289
310
278
281
303
286
263
296
311
270
284
299
269
257
302
290
260
298
298
249
276
295
276
268
301
281
257
300
295
272
295
307
282
283
329
307
293
341
337
307
328
360
314
335
370
348
314
346
349
310
330
328
293
322
333
308
290
333
328
292
324
340
309
317
352
332
317
361
346
331
383
391
340
338
371
335
318
347
320
299
317
323
293
300
343
302
299
322
321
304
331
317
285
309
331
286
292
311
311
282
320
330
274
287
307
278
282
314
298
269
315
317
277
304
296
293
302
332
300
267
314
306
290
310
319
292
289
322
298
283
317
307
283
302
315
278
288
317
275
262
304
291
259
279
287
263
287
299
263
263
303
297
261
297
312
276
302
322
301
300
331
309
276
322
315
280
310
328
296
284
311
298
287
333
318
274
306
334
297
303
337
298
281
314
312
274
286
321
263
236
254
226
225
294
306
292
333
363
311
301
320
276
265
301
302
269
307
315
280
297
317
292
285
329
314
274
307
299
287
312
339
309
297
324
299
290
315
309
275
283
315
279
280
312
290
269
293
299
262
284
303
270
292
317
301
284
333
340
304
345
360
332
345
382
345
333
384
376
340
360
365
343
345
382
345
320
356
352
323
342
357
315
326
363
328
320
352
352
317
347
357
304
317
353
332
318
348
341
305
345
351
314
328
348
321
309
348
343
298
334
330
301
308
334
302
293
339
315
295
327
329
287
310
348
301
302
330
307
292
322
330
280
298
338
310
310
332
304
286
311
310
272
303
315
274
288
305
288
282
317
301
268
320
339
288
302
326
303
296
331
322
286
317
323
294
319
351
309
301
328
311
305
347
348
308
328
378
338
322
358
347
331
333
326
291
331
348
283
308
333
306
291
321
322
284
318
327
291
305
331
306
283
328
320
290
329
334
316
310
344
317
300
349
329
300
323
321
274
278
312
300
346
410
411
397
391
397
342
338
354
331
328
385
361
318
348
362
321
341
365
327
318
364
336
293
330
326
287
312
328
295
288
323
309
283
321
308
284
301
318
280
276
320
288
258
304
307
274
286
318
283
284
321
290
288
320
327
302
328
359
314
328
370
336
322
355
353
312
330
346
316
335
354
323
306
338
326
288
322
328
292
294
320
307
281
325
308
269
309
313
281
305
333
298
281
317
293
278
301
312
278
287
315
270
280
324
295
283
307
296
272
297
310
278
287
305
279
247
273
269
212
278
315
261
282
299
283
252
288
293
256
282
292
250
232
277
244
222
262
256
239
267
277
243
259
314
292
298
339
341
314
333
365
327
341
368
333
327
349
343
312
339
357
312
330
346
319
313
337
336
291
324
333
293
305
321
292
291
334
318
280
316
314
285
301
321
290
272
315
290
273
316
312
283
307
318
278
280
323
296
296
329
310
285
309
329
282
299
325
300
288
323
320
286
306
315
264
274
268
232
222
262
292
299
350
391
345
343
337
308
277
322
313
283
321
325
291
298
329
295
281
322
309
291
302
306
289
305
335
302
293
326
312
291
316
328
284
305
323
281
292
314
302
275
302
318
271
304
328
295
297
329
320
289
338
342
310
339
360
331
334
368
352
329
366
344
326
349
346
322
324
356
320
301
342
325
295
309
324
297
310
339
300
290
326
318
287
311
324
281
297
332
293
287
310
304
273
308
318
274
304
326
294
279
308
300
269
302
303
279
306
318
286
273
314
294
277
317
299
269
287
312
277
278
317
288
270
299
289
261
280
306
260
263
299
282
258
286
294
257
283
305
263
272
302
285
268
302
298
262
301
317
273
276
299
287
270
310
314
278
318
321
293
298
319
294
283
327
306
285
316
325
296
313
342
309
299
346
321
300
329
350
303
318
339
301
306
338
315
297
322
325
289
311
338
296
302
333
310
282
314
304
244
255
261
230
279
338
339
335
392
370
304
326
332
287
286
321
303
285
327
313
287
314
322
296
297
331
300
291
324
299
287
317
320
289
295
321
285
286
313
296
266
293
302
261
278
299
259
258
302
293
254
293
297
262
280
301
282
280
325
311
295
342
346
312
340
361
335
329
368
339
317
357
347
320
332
351
314
309
352
315
291
350
335
300
322
340
301
313
348
315
298
328
325
283
317
325
282
302
328
303
288
316
312
268
307
325
294
301
324
298
291
329
317
280
316
312
287
297
325
295
285
327
296
276
312
313
285
288
322
295
286
319
303
291
317
319
284
300
328
288
292
326
313
288
306
320
280
303
318
286
293
313
299
280
307
321
287
314
324
293
297
324
298
277
318
310
274
311
326
294
292
323
297
275
327
315
299
315
329
293
296
336
293
287
322
311
277
304
322
283
297
320
288
297
324
308
277
309
323
297
317
331
283
282
319
310
277
309
314
274
296
316
290
271
299
268
216
246
249
254
311
353
346
358
378
328
293
318
305
275
299
321
281
291
319
285
275
305
301
271
288
309
275
283
312
285
283
310
307
271
306
318
274
292
307
290
279
306
299
275
316
308
269
297
313
283
276
308
296
269
325
333
306
318
348
321
319
360
349
334
363
368
332
350
379
334
336
372
343
324
350
358
321
342
355
318
320
339
325
308
332
332
282
328
348
312
304
333
320
299
339
331
298
325
341
313
293
345
332
308
359
334
325
341
341
311
324
356
319
307
333
323
314
332
347
316
334
353
304
308
342
325
304
331
343
298
321
336
304
312
326
312
287
328
340
303
326
351
322
305
340
322
298
331
326
296
313
327
304
300
337
314
294
332
318
292
317
327
293
292
333
297
290
322
321
289
316
335
300
306
349
307
305
326
312
295
320
346
319
336
353
318
310
332
332
291
320
332
290
313
322
285
273
305
294
267
300
317
274
290
310
276
270
306
279
251
276
241
203
227
253
268
291
349
334
317
330
302
274
293
317
285
293
326
291
291
319
311
288
311
320
268
284
311
282
285
304
299
270
308
314
267
293
312
275
271
311
299
266
297
303
267
282
309
287
276
301
282
273
314
301
277
303
326
301
308
357
313
311
352
350
327
340
355
324
343
371
333
320
344
344
314
335
357
302
319
342
310
302
332
325
289
319
332
289
306
327
292
287
319
311
279
312
313
276
300
320
296
280
324
300
282
312
319
297
296
324
295
293
326
302
289
316
317
278
298
328
280
284
318
298
294
314
341
286
306
334
297
296
327
307
289
323
324
280
316
323
291
297
329
311
285
319
312
284
311
325
298
293
330
300
280
323
317
295
313
325
292
295
336
298
285
324
305
287
308
328
286
302
323
292
281
315
313
272
303
323
282
298
325
294
281
318
306
277
320
318
286
300
323
297
290
330
313
290
326
321
292
303
327
285
274
297
246
217
270
292
302
334
394
377
350
358
312
284
300
300
266
295
312
281
286
316
288
260
305
312
269
298
320
284
292
309
289
269
297
283
253
292
296
267
277
310
271
263
307
280
254
285
304
253
250
299
253
246
298
278
258
280
302
276
293
329
289
301
350
349
328
342
354
309
324
356
324
324
349
333
298
333
336
270
306
323
295
291
316
306
282
316
314
279
299
320
296
289
327
310
289
325
319
291
312
331
294
298
335
299
295
326
315
285
300
322
291
297
333
306
287
311
312
280
297
328
294
310
335
307
293
324
316
286
317
328
293
305
326
310
287
336
331
291
329
329
299
303
332
311
295
340
321
299
327
336
303
314
349
312
305
338
315
299
326
336
295
306
340
307
311
337
310
292
315
329
286
305
325
293
294
324
319
282
319
318
274
303
315
286
286
316
304
277
319
316
288
302
310
291
290
326
301
283
318
318
300
314
319
267
248
273
240
240
308
332
324
367
383
308
298
326
281
280
314
314
287
303
324
289
302
324
294
280
314
303
270
303
314
277
282
309
292
267
310
306
273
308
305
284
286
316
286
274
313
293
265
298
297
266
277
311
265
261
323
298
290
311
317
286
322
353
315
322
360
334
324
351
353
313
336
352
314
322
346
320
302
336
335
297
319
328
286
304
331
305
292
338
324
289
328
329
296
311
339
309
294
333
312
287
321
320
288
292
327
297
295
331
301
288
313
320
291
313
343
299
299
326
299
286
302
306
278
297
318
285
292
320
293
271
307
307
264
298
305
276
275
307
307
284
320
310
272
301
305
275
291
319
298
282
322
305
274
310
314
294
298
328
294
281
325
310
293
305
318
281
287
329
296
297
315
305
292
325
332
286
304
336
298
300
320
308
292
313
321
281
302
333
311
307
336
324
293
331
334
295
318
334
297
284
339
325
285
312
319
293
275
279
238
231
299
315
323
362
369
333
319
307
266
263
302
278
270
296
295
265
275
303
263
275
304
280
260
294
297
252
286
295
262
271
292
280
256
294
286
244
276
289
256
264
293
266
246
285
271
252
283
290
263
269
308
286
279
315
301
284
320
343
313
326
360
322
322
352
335
310
339
344
307
324
345
307
304
330
317
290
325
332
287
312
330
295
300
334
317
286
321
318
279
307
325
292
279
324
306
292
335
320
290
298
327
294
291
325
286
282
314
310
285
308
328
285
300
332
296
294
328
328
295
322
344
297
313
334
309
299
329
327
285
321
330
294
303
330
310
289
324
314
285
315
318
292
302
325
296
288
331
304
284
315
319
295
303
334
293
292
328
306
291
329
334
294
310
346
309
312
342
318
294
327
330
291
316
338
303
305
337
307
275
285
265
226
257
308
312
340
390
364
322
338
309
267
300
313
286
292
318
283
263
309
301
283
308
315
276
284
316
285
280
310
305
288
296
303
248
256
331
287
263
306
311
275
304
335
278
296
315
283
271
305
291
256
295
292
269
295
324
302
287
333
315
303
335
336
312
317
351
318
303
337
309
300
328
330
311
339
353
322
326
369
347
323
351
347
316
330
365
301
313
338
298
294
323
317
284
312
324
279
294
316
290
275
307
299
270
305
310
272
292
311
287
272
314
295
267
306
304
272
285
321
284
279
318
291
279
324
306
264
296
343
300
303
337
309
294
331
327
292
318
336
294
308
339
309
300
332
337
294
324
338
297
314
343
321
305
339
332
297
325
337
304
312
342
321
305
348
328
298
333
336
309
310
342
308
294
334
296
291
329
337
300
315
339
294
287
328
295
283
309
316
265
282
308
268
272
295
256
224
244
246
217
279
323
305
354
377
332
291
319
304
269
301
316
276
286
313
290
278
325
308
277
309
316
288
304
329
294
280
327
298
272
305
308
276
286
315
276
269
307
281
260
277
286
260
275
300
259
262
293
278
265
296
305
271
303
323
295
310
340
328
308
349
355
308
334
346
303
307
357
342
320
356
345
308
336
350
314
312
366
319
299
338
324
292
315
326
292
292
330
294
279
321
308
282
302
330
289
302
339
302
304
327
325
309
333
348
301
323
347
317
315
342
336
298
332
345
298
321
353
320
308
339
323
288
329
329
298
313
326
304
298
337
317
290
328
325
298
309
337
297
293
340
314
298
332
331
305
316
341
303
302
340
304
298
324
323
291
308
334
297
305
331
311
294
323
327
276
312
325
289
297
337
321
295
331
325
283
320
327
290
294
326
307
288
328
314
289
313
316
293
294
329
298
285
337
317
296
316
331
296
302
331
285
264
279
249
231
266
312
302
338
395
364
327
331
311
271
301
310
275
297
311
287
304
338
319
293
333
328
287
307
325
295
294
328
310
279
317
307
281
299
307
277
274
308
268
250
297
293
266
284
302
266
266
303
277
271
308
300
274
304
331
292
309
344
316
314
349
348
303
346
361
318
324
349
322
310
347
332
301
339
340
308
316
338
316
303
338
317
291
320
317
287
291
313
281
272
319
290
266
293
294
273
284
310
271
272
302
286
270
291
299
262
277
307
264
275
305
284
271
304
305
257
298
317
279
277
299
301
289
331
323
282
316
331
301
301
329
314
293
336
324
296
322
332
300
299
341
308
295
337
321
284
328
332
296
306
338
304
299
329
319
289
313
331
295
315
342
303
294
330
327
300
322
325
278
324
353
319
308
331
339
294
332
350
310
320
328
306
299
339
322
293
338
325
291
292
304
260
249
276
236
229
292
328
315
358
382
320
291
318
271
255
294
299
270
293
318
271
284
308
280
275
309
293
261
306
318
277
281
292
267
261
310
310
268
295
306
267
292
312
281
268
315
301
268
303
297
271
294
311
263
233
239
291
306
346
341
304
322
334
297
306
368
329
312
345
353
312
328
358
325
343
386
370
362
413
402
359
376
398
355
360
361
342
317
326
317
244
289
292
265
261
299
282
263
299
292
252
291
266
242
251
271
248
225
262
242
226
249
253
220
230
266
234
231
272
256
236
265
289
250
259
299
271
266
296
284
268
305
315
274
292
310
275
280
307
288
262
306
313
262
295
308
277
284
308
295
271
320
320
296
327
338
313
309
349
320
305
349
341
319
331
356
316
324
362
334
325
363
349
330
348
366
327
332
364
332
327
355
353
340
367
378
333
357
381
342
347
374
359
332
358
362
325
343
359
332
335
364
349
318
354
352
315
342
351
324
317
347
321
297
337
308
274
275
271
244
235
296
320
336
383
387
348
343
343
297
295
334
300
297
330
316
287
315
332
282
301
322
284
284
310
295
264
305
314
265
297
327
294
290
312
303
277
321
310
285
313
330
307
302
331
313
284
326
324
298
322
335
308
308
351
328
319
362
358
330
356
376
340
343
383
345
332
362
350
316
332
357
313
320
345
321
309
332
329
291
334
334
293
312
332
302
301
334
325
298
332
333
298
316
335
309
293
330
311
281
315
301
294
309
333
297
295
341
311
294
328
328
298
309
343
306
308
347
323
309
333
334
297
307
342
303
315
342
302
285
322
333
289
312
323
290
301
319
302
277
313
314
277
304
335
294
299
326
306
280
330
320
283
301
327
300
304
340
302
284
323
305
283
298
321
287
294
327
290
290
320
305
279
306
323
283
299
324
293
298
321
311
285
310
321
286
308
325
297
297
327
311
287
320
329
290
318
330
306
304
335
328
288
328
318
288
307
321
294
287
329
302
279
316
299
253
254
273
242
267
346
327
333
377
345
289
300
317
275
285
328
293
284
309
308
276
301
314
270
291
319
303
283
321
312
276
326
335
291
292
311
293
285
316
302
271
304
306
276
284
312
281
269
303
302
272
302
306
274
281
303
279
275
318
302
300
340
339
313
340
373
333
335
369
336
333
357
356
321
337
372
314
320
351
318
307
326
334
297
318
335
295
309
336
311
302
337
329
294
322
337
302
320
342
315
300
339
331
290
319
333
307
326
342
303
296
337
318
289
329
324
293
318
339
306
304
344
319
304
340
334
306
323
340
299
307
344
319
308
340
335
302
324
345
300
315
356
305
300
324
315
281
305
317
276
293
315
296
282
314
306
276
303
311
282
297
318
294
271
310
297
268
303
304
281
286
328
288
274
314
295
272
303
307
276
286
315
276
277
315
293
282
311
314
286
306
317
287
318
338
322
290
320
322
276
310
330
292
303
320
291
242
255
255
237
307
345
337
369
393
346
299
317
298
274
304
313
286
290
325
297
283
319
303
283
300
316
283
286
318
282
278
310
280
278
321
326
268
295
339
302
294
314
292
269
285
310
274
285
290
244
279
320
282
239
299
291
253
287
298
293
312
354
331
304
348
327
283
295
298
279
283
340
334
334
389
394
383
412
452
419
421
458
410
373
396
386
350
360
372
328
318
344
301
283
304
287
251
278
300
262
278
302
277
278
315
313
263
291
309
264
278
292
276
267
300
292
259
297
303
282
298
309
303
299
334
321
303
344
333
317
321
348
313
298
332
299
278
311
303
269
293
308
267
263
294
264
253
282
295
257
266
308
278
272
324
287
277
309
312
272
301
315
279
293
317
300
282
315
312
284
317
325
294
310
345
316
298
340
328
307
336
332
305
317
358
337
308
355
339
317
347
348
316
318
349
309
304
343
323
304
326
336
294
301
314
256
242
273
258
272
330
355
338
348
354
289
284
304
289
276
308
311
267
291
303
273
284
313
295
264
310
306
270
297
307
276
278
307
283
262
298
284
258
285
296
266
276
307
277
255
293
287
263
283
289
249
265
313
279
276
318
306
285
308
326
295
320
356
319
320
351
358
311
347
360
311
334
358
324
309
348
344
304
341
338
304
317
332
316
308
338
318
297
335
330
304
317
335
302
300
334
303
287
324
315
288
304
331
299
301
332
300
294
323
314
289
306
328
287
294
322
295
285
316
308
280
302
310
273
289
317
292
285
319
314
281
315
319
286
303
320
295
285
321
307
279
316
312
289
303
323
300
286
320
300
277
313
320
281
288
316
290
276
313
284
273
301
299
270
285
310
268
278
317
282
277
310
302
278
302
321
276
295
316
285
283
311
305
269
301
315
274
305
307
281
267
300
300
270
314
319
288
304
326
304
294
330
313
282
320
319
280
293
323
289
276
308
266
230
261
261
247
304
356
329
350
377
324
297
316
316
284
304
334
301
311
334
317
311
338
344
299
320
338
296
308
328
309
288
321
311
280
310
315
294
308
324
293
275
319
304
279
308
307
278
275
315
286
264
297
285
265
290
303
270
280
323
291
293
333
317
295
327
343
310
326
344
308
306
339
327
306
334
341
299
321
340
305
303
339
329
298
346
335
286
312
332
303
288
319
307
289
324
306
281
307
318
287
279
316
292
272
310
304
277
296
320
287
286
321
286
278
304
301
271
283
317
281
287
320
287
279
311
304
273
299
318
276
292
328
297
280
314
315
285
312
317
293
326
330
305
292
327
315
281
313
317
290
301
322
305
293
324
303
286
311
314
286
287
329
309
304
331
303
289
321
328
294
301
333
287
284
320
298
282
316
323
284
304
331
284
296
331
311
292
325
334
291
312
331
285
281
295
254
226
278
311
305
345
396
375
351
352
315
284
320
308
282
318
327
297
297
331
303
292
330
312
289
318
327
297
306
335
301
292
328
309
292
317
326
291
299
332
288
290
326
306
294
318
320
281
302
324
284
292
319
310
288
322
327
291
328
350
323
322
361
352
331
369
373
338
367
373
340
337
370
343
318
361
348
317
341
356
322
318
353
316
312
343
325
305
321
339
299
313
358
311
303
335
330
302
320
341
297
316
336
305
299
327
321
287
320
328
290
306
325
302
290
325
316
282
321
325
290
307
328
306
295
322
304
281
313
302
287
301
337
303
292
327
303
279
310
310
278
288
320
287
282
324
295
278
299
310
279
296
329
291
291
324
305
287
314
324
284
304
323
280
297
325
313
296
320
320
288
314
338
294
284
303
297
270
297
289
274
309
316
290
290
338
313
289
333
305
287
307
304
283
282
314
292
291
321
298
260
264
260
235
252
310
311
330
385
385
345
349
343
300
316
342
302
310
338
318
301
331
335
299
325
342
308
326
354
332
313
340
338
324
336
338
298
312
336
320
304
333
324
283
317
320
292
290
317
281
269
322
304
276
307
319
283
291
330
303
298
344
330
310
342
359
331
335
371
333
352
367
349
326
352
360
318
349
367
333
334
361
347
319
345
354
314
341
355
314
307
314
299
292
322
326
304
324
332
295
292
328
307
279
321
316
285
306
334
303
298
324
298
284
318
308
285
304
326
285
289
325
291
286
317
311
285
304
324
282
301
325
289
290
319
311
282
311
322
280
301
325
298
294
319
309
275
308
311
295
297
323
289
285
317
290
269
309
316
287
292
321
296
293
335
316
290
319
321
294
298
322
286
289
322
294
277
310
317
287
304
320
281
288
314
288
279
309
311
275
294
310
269
282
306
295
270
305
295
263
293
298
264
264
281
237
211
242
236
237
305
324
318
329
341
288
269
303
276
256
287
294
266
277
309
269
265
303
282
269
291
304
270
281
319
280
288
325
303
288
310
318
278
305
321
281
291
316
296
275
307
303
272
297
310
264
280
312
312
271
314
317
288
326
337
317
330
367
350
338
381
370
343
372
380
367
355
383
349
336
372
345
325
342
347
314
319
348
311
310
346
320
306
326
332
292
305
332
296
297
328
316
286
316
326
271
298
332
292
294
319
306
274
308
308
276
304
314
286
296
332
308
281
322
310
275
309
321
291
293
324
296
281
325
305
281
306
322
294
300
335
306
293
321
306
289
311
329
281
300
328
294
285
318
307
294
307
328
289
305
329
295
293
320
310
283
312
321
276
296
312
287
285
313
299
266
301
304
266
287
304
280
271
311
292
269
309
299
277
283
283
234
224
271
262
290
356
357
352
349
348
291
279
308
267
258
299
294
269
285
310
265
278
314
282
282
311
304
273
303
318
274
288
314
286
279
315
315
268
299
325
276
290
313
290
273
311
295
259
292
297
263
273
296
270
252
299
285
264
305
308
284
316
341
320
317
362
342
325
357
349
320
330
358
321
314
350
321
316
346
344
312
330
353
312
323
357
327
316
342
341
309
327
345
302
314
339
312
295
329
327
288
318
330
293
310
328
305
288
339
316
287
323
321
292
305
331
308
293
329
313
287
319
318
288
299
325
289
283
321
297
283
311
316
286
294
327
288
295
328
303
292
312
317
283
304
328
288
290
319
308
284
312
321
274
304
321
288
298
326
307
292
331
328
291
325
334
306
310
331
314
296
330
321
293
325
341
313
310
346
320
315
342
331
300
327
342
305
308
341
303
291
325
284
240
258
273
262
306
367
341
358
383
339
299
315
317
283
309
335
307
300
329
316
289
317
324
281
309
327
293
294
327
304
281
315
314
279
297
312
284
288
316
299
279
320
310
282
302
316
289
288
326
295
285
328
317
287
301
324
296
304
349
327
317
355
340
319
346
363
318
324
351
326
323
347
335
305
330
341
297
319
341
300
299
323
310
277
309
321
280
303
322
292
288
312
302
266
307
302
267
288
300
280
272
309
287
265
312
295
271
288
305
275
270
307
287
273
297
294
275
287
315
282
282
328
302
288
318
315
286
308
324
278
290
327
289
271
299
300
293
291
309
272
286
309
291
281
315
312
272
307
319
285
295
321
298
283
318
312
277
325
317
294
298
317
302
281
330
329
285
319
326
289
298
320
287
281
319
291
278
314
325
295
318
353
314
310
351
327
305
334
343
301
319
350
307
312
348
324
289
315
295
240
253
276
267
316
358
359
343
357
330
285
300
312
286
283
317
301
276
323
314
277
305
314
283
282
312
284
264
304
297
262
279
283
258
257
295
262
250
280
288
247
265
290
251
255
288
253
241
284
273
247
269
295
264
283
308
284
281
312
310
295
332
345
304
336
359
327
329
356
348
316
353
354
318
342
356
328
327
356
328
311
345
331
304
347
343
304
286
332
304
286
321
315
290
310
324
295
294
334
301
280
309
302
276
303
329
284
283
326
291
276
330
314
273
301
326
280
292
320
286
278
303
300
268
295
301
261
279
303
281
263
300
294
262
297
295
265
280
311
279
273
320
300
273
309
306
274
287
318
298
288
330
312
293
333
336
308
320
350
303
304
345
323
300
329
346
304
319
338
300
304
337
319
302
331
353
299
328
348
311
334
356
334
320
347
339
302
337
341
307
323
345
319
309
351
343
310
344
324
273
272
295
280
308
378
378
388
419
392
331
339
342
295
289
344
321
296
335
320
300
319
335
301
308
342
310
287
318
311
282
298
320
276
285
317
286
277
307
303
271
291
301
267
278
301
273
272
302
296
266
294
304
270
288
304
281
277
314
312
290
328
330
306
320
347
322
312
350
329
307
349
338
312
324
349
313
304
343
315
294
339
320
292
303
334
293
291
327
299
289
323
325
289
313
334
310
307
334
303
296
322
322
288
318
331
290
304
329
307
293
325
321
286
321
321
284
291
319
301
285
321
306
277
312
312
287
295
324
293
283
321
302
283
319
311
292
305
337
302
297
338
313
296
327
330
300
312
345
304
304
339
315
301
327
334
296
320
339
291
309
340
317
304
335
331
295
327
340
306
317
337
313
298
338
330
297
332
341
306
316
342
317
301
341
324
294
325
327
301
304
340
301
286
319
289
245
257
272
253
298
361
339
360
388
343
300
311
325
287
306
341
299
300
327
313
289
318
328
286
306
332
294
295
319
304
282
310
314
273
300
313
283
286
319
301
274
310
303
271
298
308
286
272
308
281
263
311
296
270
299
316
285
289
331
305
299
346
334
313
342
357
327
330
366
337
330
362
347
329
349
360
312
328
354
318
307
333
323
294
320
330
288
307
329
300
294
319
315
283
314
314
281
301
319
308
285
316
304
271
302
298
277
299
316
288
278
316
296
275
319
303
283
307
322
294
291
333
303
293
335
323
301
315
333
296
295
337
301
294
326
324
290
313
337
295
295
326
301
293
325
319
291
320
338
297
315
335
306
294
324
328
290
316
327
293
309
332
308
293
330
310
281
324
325
287
307
321
294
285
326
305
280
313
303
287
294
329
291
281
320
303
277
299
310
279
292
318
278
286
323
299
286
317
319
273
295
339
309
288
303
280
269
302
319
285
291
301
277
267
272
244
233
292
319
309
367
357
300
288
313
296
283
323
312
291
333
330
289
291
312
292
277
310
289
253
292
285
261
283
310
293
296
343
327
305
348
350
328
344
370
336
320
356
324
301
332
318
290
300
319
273
272
311
275
266
295
286
265
270
296
268
280
311
280
280
316
315
290
315
340
290
306
333
303
300
327
330
292
328
337
291
306
328
305
295
328
319
287
330
350
297
318
337
297
293
329
315
291
325
321
293
312
330
299
286
328
302
288
321
327
284
306
325
287
285
320
283
265
300
294
267
287
307
275
286
324
287
286
317
308
284
306
323
281
300
329
294
286
311
299
270
301
313
274
292
319
290
287
313
307
279
317
319
286
307
325
300
291
326
308
284
316
314
289
314
334
301
290
332
316
293
332
337
297
314
343
311
306
341
316
298
335
324
295
307
340
297
299
338
305
286
316
312
278
299
325
287
292
323
297
287
317
313
277
300
324
292
308
332
311
288
317
312
267
287
275
230
245
291
306
311
367
379
330
340
317
275
287
308
290
274
318
307
281
330
315
283
289
336
314
294
326
303
278
305
304
274
281
311
273
263
298
274
259
285
291
259
282
308
277
270
300
279
261
288
297
263
299
318
285
294
324
312
294
332
338
304
348
364
333
349
373
363
334
363
347
324
350
356
327
327
358
333
310
345
334
304
327
342
305
298
338
317
311
344
327
298
319
347
306
306
335
305
297
325
320
290
311
329
287
309
330
297
298
332
323
291
331
332
287
309
330
299
288
317
312
278
315
319
280
293
311
283
274
311
290
266
301
289
265
283
306
277
277
318
292
274
304
297
273
284
304
269
271
310
283
285
312
305
272
297
322
285
297
324
299
289
315
314
278
304
325
286
297
321
295
285
317
319
291
319
317
286
307
320
294
275
315
303
282
318
312
277
287
315
289
279
324
302
277
310
310
275
280
309
294
288
329
312
290
314
325
293
296
324
275
254
278
261
258
317
354
330
369
385
319
304
320
299
278
313
321
286
304
326
287
295
319
307
280
312
318
280
298
309
289
287
320
305
278
314
307
274
302
304
283
273
320
296
274
300
291
261
278
293
257
273
313
277
268
307
298
276
285
314
302
295
337
299
313
337
319
306
335
351
314
326
351
310
306
332
318
287
314
321
281
298
319
292
285
313
299
266
304
302
264
293
307
280
271
306
294
272
311
309
276
304
318
292
293
331
304
283
323
313
293
318
328
300
311
350
319
304
347
334
311
330
345
311
317
349
316
315
341
335
301
325
343
291
317
346
311
314
339
331
297
328
334
303
317
341
313
304
332
324
294
322
328
290
317
344
316
300
331
318
297
324
321
287
310
335
293
281
321
297
276
305
302
278
291
313
277
277
320
285
276
307
305
276
295
328
277
282
322
298
289
320
326
286
315
325
289
284
315
299
281
319
314
268
297
308
281
283
313
292
273
307
317
271
311
312
284
292
320
280
245
272
262
242
302
339
328
360
403
350
311
330
303
299
327
337
300
313
342
303
299
335
310
290
321
336
292
309
330
299
305
326
309
291
320
321
279
306
322
286
299
323
309
282
310
304
279
309
318
287
282
309
297
269
312
304
279
311
333
305
310
354
328
315
366
341
323
354
365
337
337
362
337
329
366
350
330
343
350
314
321
361
320
313
347
330
305
333
338
300
315
340
302
310
335
322
294
326
338
303
329
331
310
320
345
324
295
340
339
302
324
335
311
308
335
327
295
338
325
299
321
330
310
309
344
317
307
337
321
299
318
330
283
299
348
312
300
331
321
303
323
344
303
305
340
308
305
336
325
306
320
342
292
311
337
305
307
333
321
292
321
330
285
306
324
301
295
320
309
277
311
318
285
308
323
300
288
323
306
275
313
311
287
303
321
298
285
324
301
284
314
307
281
290
314
286
284
326
301
285
330
318
291
301
331
293
294
338
310
293
324
325
289
299
311
249
241
270
250
281
340
360
352
366
364
298
298
315
291
282
314
320
280
310
325
288
303
324
302
282
315
302
268
309
315
283
287
318
295
277
318
302
275
310
306
280
282
316
286
276
317
295
274
298
303
274
281
311
276
275
313
294
276
308
323
292
318
360
330
332
364
341
333
360
366
328
347
366
326
327
354
336
312
339
346
298
321
335
296
302
323
299
279
311
314
270
298
309
274
281
306
288
271
310
306
265
305
312
283
293
317
299
281
320
312
283
315
318
287
303
326
299
296
331
308
292
323
317
290
298
319
301
288
325
291
280
310
307
283
300
324
289
289
324
294
286
315
311
280
297
316
275
288
319
290
279
307
299
269
294
308
262
276
311
281
283
312
302
274
305
308
275
300
317
294
295
322
310
281
322
314
281
304
320
291
289
324
299
276
317
312
288
309
324
300
298
334
310
286
327
313
291
309
334
302
305
340
305
286
314
279
236
252
271
253
298
361
345
352
367
337
293
307
323
280
303
324
296
286
315
305
279
309
317
281
296
314
289
279
304
298
266
301
307
274
284
302
282
267
309
289
261
292
286
255
260
284
255
247
295
268
253
281
293
260
276
310
284
282
328
301
294
327
331
303
328
352
313
318
349
325
318
342
347
308
327
350
309
320
332
321
302
335
320
286
317
331
287
301
323
293
282
318
312
279
319
322
289
300
321
294
282
319
306
281
314
321
296
307
329
302
293
339
324
304
330
332
300
310
342
309
304
341
316
295
331
326
304
313
337
292
296
330
298
284
310
305
277
299
316
273
286
317
286
284
306
307
278
308
324
287
303
328
306
288
326
324
281
321
327
294
310
330
307
295
335
325
293
331
330
298
313
334
304
294
329
311
286
323
320
294
304
326
296
286
330
303
285
313
310
280
292
322
281
283
322
297
285
313
315
281
304
325
284
295
327
299
287
324
324
289
306
321
269
273
270
241
224
278
311
300
350
384
343
321
331
306
285
327
309
284
340
355
318
327
372
334
311
351
337
307
328
327
301
306
331
299
288
328
302
283
303
310
278
284
314
276
266
304
274
255
284
289
258
276
303
266
273
306
296
277
304
314
280
315
336
311
319
349
342
318
360
362
325
350
363
334
340
361
344
324
361
349
320
346
352
320
324
349
316
298
331
306
287
306
315
286
287
325
294
288
323
304
289
309
325
282
285
314
293
281
311
304
283
309
324
285
302
328
304
292
333
309
280
308
316
286
300
319
297
285
312
301
276
306
306
267
287
302
277
280
304
287
262
301
292
268
294
315
288
285
326
299
280
318
311
290
324
342
308
310
344
311
293
334
330
302
318
339
301
299
331
293
286
314
302
281
320
318
269
281
302
268
265
301
285
255
289
303
263
286
300
279
272
294
293
266
300
314
279
300
313
296
297
336
325
295
336
336
300
318
336
312
305
338
311
280
325
313
283
274
277
239
244
304
323
333
386
403
368
357
370
327
322
352
335
337
367
357
330
344
372
324
333
363
332
317
341
337
303
319
339
287
295
321
283
272
293
288
255
283
293
243
266
286
259
257
274
270
240
263
262
218
237
253
229
218
258
247
223
263
278
252
281
303
285
280
321
304
280
320
315
295
311
334
315
304
345
322
309
346
344
321
350
369
343
341
394
353
348
379
371
346
361
385
346
351
383
356
345
369
369
335
359
380
339
354
378
352
339
367
369
333
361
370
327
341
363
339
331
357
347
319
346
353
314
332
353
328
312
351
333
304
339
334
302
312
339
310
299
338
315
288
322
320
289
303
323
292
285
327
306
271
299
301
271
277
297
254
267
309
260
243
274
270
239
258
277
234
244
278
253
245
272
267
242
267
292
259
280
305
290
286
321
311
275
313
318
287
311
330
306
297
331
325
294
337
355
310
315
336
322
300
340
330
297
341
336
298
309
319
286
261
285
238
187
218
219
220
273
318
313
302
329
287
254
280
278
255
271
298
262
259
291
267
250
279
284
254
270
294
250
257
288
259
250
273
275
243
262
281
248
251
284
261
256
288
291
256
282
299
259
271
291
265
253
287
285
246
290
303
271
297
334
312
303
343
337
309
347
348
329
339
362
337
321
359
335
310
348
344
315
324
349
314
307
351
322
304
333
335
306
319
344
308
308
344
325
308
330
336
300
314
337
295
300
325
297
285
310
309
268
294
313
272
285
313
288
276
312
310
273
298
325
282
306
321
301
285
323
312
279
313
318
283
299
321
293
276
319
294
258
283
285
252
257
295
273
253
292
272
253
280
285
254
265
302
275
264
310
294
270
295
303
275
288
317
280
285
324
301
278
302
307
263
281
305
262
264
300
288
273
310
312
273
304
320
282
293
320
299
280
315
312
277
313
318
282
283
275
242
231
283
302
311
366
401
367
349
354
315
280
327
313
295
338
347
306
313
348
311
316
352
315
285
309
306
283
291
319
276
274
308
276
261
285
287
262
280
308
267
282
313
280
279
314
308
271
292
315
265
278
306
282
269
307
293
272
322
338
294
318
351
329
320
352
351
315
343
349
311
326
346
320
303
342
329
301
333
330
301
315
335
305
291
326
303
278
314
309
285
298
331
295
293
333
305
293
319
320
292
305
353
290
304
338
315
302
327
332
301
316
343
300
309
339
314
303
331
330
291
320
340
301
313
335
313
295
326
324
286
322
334
301
309
333
311
293
331
315
285
319
328
291
292
324
300
297
330
316
294
316
339
319
311
346
324
318
347
331
308
353
340
320
314
344
305
301
330
316
297
317
331
296
312
349
315
311
332
314
298
329
336
290
312
334
296
299
326
331
306
334
346
305
329
343
315
308
338
321
293
330
326
292
307
309
267
240
260
237
225
307
324
315
366
367
312
298
334
299
290
337
322
301
324
333
302
308
350
318
309
359
337
317
337
343
306
321
356
317
310
341
320
300
324
337
300
311
340
302
307
334
314
295
322
327
292
315
337
301
307
333
323
306
340
348
306
336
352
328
342
371
357
329
372
360
327
350
356
329
322
358
333
304
347
328
299
324
335
302
302
340
308
295
336
322
296
314
332
301
304
336
301
298
333
319
295
316
340
304
317
348
317
315
348
341
319
342
364
321
339
362
321
319
349
335
301
333
340
300
321
340
309
309
344
319
292
338
333
290
318
339
302
305
347
330
295
331
321
294
317
331
300
297
339
311
291
332
319
288
316
335
304
305
341
310
300
336
320
289
304
322
288
295
331
302
293
305
300
280
296
316
281
294
325
294
289
323
312
281
308
324
279
297
311
288
288
317
294
259
290
279
221
230
274
287
309
358
379
337
347
320
275
283
305
284
271
311
295
264
306
296
266
298
315
283
279
315
298
277
312
302
268
285
305
271
270
307
274
267
296
296
265
277
298
269
269
306
281
269
296
289
264
291
305
275
289
327
297
293
324
327
304
334
358
320
338
363
331
330
358
342
312
343
361
309
321
348
321
324
341
326
296
330
334
300
319
335
302
299
329
312
286
320
314
282
309
318
289
285
319
297
268
309
307
278
308
312
285
287
327
302
282
325
316
297
320
333
306
305
342
313
299
335
325
306
322
337
305
312
350
313
307
343
320
298
321
328
296
302
332
293
295
323
308
290
312
318
283
291
319
277
283
312
294
275
303
313
269
291
317
282
287
314
299
276
311
314
267
303
319
280
293
321
305
288
322
318
286
308
318
288
289
319
299
281
327
316
291
315
315
278
271
289
254
233
308
337
332
385
405
361
342
355
319
294
342
333
308
330
341
303
310
346
307
299
333
315
285
304
314
276
281
308
272
258
290
284
258
281
298
256
270
302
267
272
295
284
253
289
297
258
278
294
267
270
299
285
264
298
300
261
287
306
282
291
327
322
299
338
330
301
325
335
309
306
336
311
286
328
314
290
311
318
288
287
321
287
276
314
305
279
303
304
279
286
319
287
272
313
300
282
308
321
289
299
333
295
295
325
307
293
318
325
289
304
338
295
297
327
312
292
313
332
298
313
331
292
300
330
318
302
329
332
296
326
341
306
314
341
320
294
338
338
297
328
341
312
310
332
319
300
336
326
298
325
333
320
311
337
318
302
343
322
293
318
334
299
302
337
311
302
334
317
295
321
326
295
304
329
294
293
323
294
282
305
324
285
288
310
280
273
301
295
272
298
310
279
296
319
282
292
311
287
264
289
277
231
253
287
266
268
288
263
231
253
241
211
252
294
299
322
370
355
309
330
312
275
299
315
289
293
331
308
291
326
307
285
314
326
296
296
333
298
288
320
308
284
301
312
284
282
318
278
270
302
289
268
285
300
260
275
299
263
259
294
292
259
286
300
268
295
312
291
292
329
325
298
337
343
312
343
358
332
327
358
345
314
355
350
315
337
349
316
314
338
320
300
337
321
298
319
328
303
307
336
311
293
332
314
286
312
325
296
296
330
296
287
325
304
282
305
314
282
293
326
297
291
317
315
281
306
327
288
300
334
295
290
321
304
282
310
317
279
303
320
291
292
322
304
282
313
317
275
298
316
287
286
318
296
271
311
308
274
292
312
292
291
321
300
282
317
305
299
306
317
286
287
323
292
276
309
299
276
300
312
277
287
318
287
284
314
296
282
301
315
280
293
326
282
283
319
300
288
319
329
295
308
328
293
297
337
313
293
313
319
283
306
325
278
298
325
301
289
323
329
289
309
328
299
302
324
305
282
322
306
273
295
271
239
254
293
302
309
367
371
343
352
331
294
288
317
294
287
324
301
280
308
311
281
291
318
291
284
313
290
275
300
306
272
289
317
279
280
312
294
282
308
316
278
295
312
280
278
313
295
275
299
305
266
315
317
281
293
323
315
302
342
349
325
357
373
347
357
388
372
356
390
380
346
377
384
349
352
380
344
329
365
347
320
352
349
325
334
361
338
325
371
346
324
358
368
330
338
369
333
330
363
341
326
351
352
325
339
372
331
339
368
338
337
362
358
326
346
368
328
339
364
336
322
355
345
305
338
356
318
330
353
334
319
350
350
310
350
348
309
321
339
309
304
326
319
287
320
325
292
306
328
298
286
325
316
282
320
322
297
305
323
296
293
310
307
289
314
314
282
279
302
292
279
318
283
272
317
300
272
292
300
270
270
300
271
269
306
291
264
280
298
268
281
304
280
266
293
285
256
280
300
258
278
305
277
266
296
294
257
290
306
265
287
305
288
270
295
279
236
248
237
201
219
266
275
284
354
344
296
303
286
248
256
280
261
249
289
267
248
282
279
257
272
297
266
256
298
271
254
288
282
256
274
299
266
272
307
300
270
295
297
274
284
305
263
264
300
281
273
299
291
269
295
312
277
293
319
301
291
326
329
296
334
346
305
321
359
340
327
366
362
323
357
360
334
351
362
342
328
363
352
318
354
354
319
332
347
319
306
343
328
298
335
328
304
316
334
295
289
335
316
298
334
321
291
305
337
305
290
326
297
282
314
309
286
299
324
288
294
332
300
291
334
325
293
319
339
301
309
339
309
301
333
326
294
320
339
295
309
338
312
296
324
316
285
316
325
287
305
330
306
286
317
316
284
318
323
286
309
322
299
295
336
322
280
320
327
285
307
329
296
285
316
307
274
317
315
281
296
316
290
284
328
301
278
317
313
287
308
318
288
278
314
293
272
314
301
286
299
312
294
283
307
271
247
264
244
225
260
308
304
329
385
334
305
317
295
268
297
312
282
296
326
280
272
303
297
287
315
318
281
302
326
285
293
318
309
279
313
314
275
303
319
286
293
312
295
273
306
303
266
294
296
273
286
302
280
267
310
297
275
302
310
286
298
334
315
301
350
337
318
345
354
330
343
369
334
330
370
348
323
346
356
327
335
356
316
320
354
329
305
328
349
305
317
336
301
311
339
321
302
323
332
295
317
338
298
298
325
319
299
329
335
295
321
337
299
304
333
313
289
324
328
289
316
329
295
299
323
310
296
328
323
296
330
336
309
305
343
322
295
337
327
300
330
337
308
313
342
309
298
336
322
298
321
332
311
309
340
305
295
331
308
292
318
334
300
314
345
311
311
346
327
314
337
342
298
318
344
307
315
336
320
301
329
320
287
306
324
291
287
319
305
271
313
314
278
300
313
288
280
315
296
272
317
308
278
302
320
297
295
330
304
281
326
311
286
306
319
291
284
319
308
274
310
289
256
256
252
228
238
306
309
310
359
360
323
315
322
273
286
316
280
277
314
289
266
285
308
273
286
299
275
270
306
298
267
298
308
268
290
315
286
287
313
307
278
316
334
286
305
328
304
296
327
307
279
321
314
280
301
323
296
288
329
307
291
333
334
320
341
363
340
336
375
354
339
373
366
341
358
373
337
335
363
331
315
355
347
320
339
358
316
320
349
316
324
335
328
302
324
343
305
317
357
321
297
325
324
303
331
341
302
318
338
304
290
330
323
281
321
319
290
314
329
305
294
319
307
281
322
317
291
308
329
296
284
333
313
298
329
321
293
308
339
310
302
344
313
296
332
324
303
310
340
304
305
342
320
304
335
331
301
327
337
300
304
339
303
294
322
316
292
316
333
297
309
335
311
315
338
331
301
330
354
311
321
345
312
305
333
327
295
325
332
290
309
331
311
297
334
319
290
329
334
305
329
343
322
307
350
333
294
321
327
300
324
334
305
299
331
295
264
287
266
227
239
280
287
311
365
357
335
338
317
281
289
313
282
283
314
292
272
303
299
278
298
319
280
292
328
293
289
317
309
279
296
315
280
295
319
294
286
312
308
277
312
320
271
287
307
283
283
307
304
274
309
314
278
306
320
291
296
331
322
305
349
342
309
330
356
332
328
356
340
316
349
351
318
347
350
315
315
343
311
302
336
313
290
314
310
279
295
321
286
269
301
276
256
284
286
257
268
292
260
267
307
270
257
293
293
259
273
303
267
273
300
283
268
294
296
260
281
306
263
269
301
287
278
304
307
273
306
317
280
293
320
305
295
328
322
286
318
341
297
305
324
306
294
325
317
283
314
317
294
303
330
303
283
323
306
283
311
312
289
299
325
293
286
337
314
283
315
319
297
302
333
298
285
325
305
289
314
311
287
299
327
291
298
332
310
298
320
326
297
310
349
299
305
336
312
296
326
327
288
302
316
253
246
267
259
274
336
362
364
388
380
314
302
319
298
279
312
317
278
310
323
287
296
318
295
274
312
309
275
310
316
282
296
319
295
278
317
304
276
309
305
278
283
309
285
271
317
291
262
296
296
263
276
293
268
260
306
282
262
299
301
280
298
329
299
298
341
318
308
341
336
303
321
342
310
301
338
309
295
324
319
288
302
320
288
292
329
301
289
318
321
289
311
330
290
296
329
298
287
313
323
297
319
334
290
306
330
300
297
321
324
304
323
337
293
310
332
304
298
330
322
289
320
331
297
314
337
306
299
336
327
295
332
334
298
317
340
314
301
339
324
303
341
334
315
330
346
323
309
346
327
303
345
338
311
328
346
314
306
347
322
301
334
327
301
311
336
305
302
342
313
297
328
325
299
315
335
295
307
340
311
301
323
324
290
312
335
301
308
338
313
300
326
326
297
319
347
297
311
336
309
304
327
314
268
276
282
243
283
338
332
344
392
365
307
329
320
283
297
323
303
291
332
311
280
320
317
286
302
320
292
286
327
304
282
308
310
286
303
322
284
274
323
301
293
322
306
281
304
322
294
293
319
288
271
305
296
279
289
316
276
287
314
286
286
321
313
292
319
345
305
319
352
328
321
356
345
311
333
342
315
336
360
318
311
343
329
296
323
327
287
309
324
291
289
318
306
277
321
319
284
308
320
300
296
325
314
286
322
318
289
313
326
301
303
330
300
289
327
309
287
315
317
286
289
328
297
287
317
302
282
301
321
284
292
327
290
285
320
306
285
304
318
285
287
315
279
289
320
311
283
308
319
289
302
328
293
294
316
307
287
315
329
289
312
329
300
304
339
320
295
327
326
293
315
331
302
305
329
311
283
322
314
287
308
324
301
293
327
308
282
325
317
289
312
331
305
300
340
318
291
325
306
288
310
313
285
289
326
284
264
283
263
230
260
304
301
340
398
360
337
347
320
285
304
322
288
298
325
285
282
313
293
276
301
311
264
287
317
276
285
307
292
274
307
310
268
295
311
271
279
307
282
251
285
290
253
282
297
269
267
293
280
258
289
281
262
294
304
281
285
322
308
290
331
326
303
329
344
311
308
344
314
294
328
307
291
318
325
292
298
331
293
286
322
303
283
304
317
283
289
329
291
287
320
304
280
305
313
276
293
325
285
287
311
298
272
301
313
275
293
331
279
284
307
294
274
303
307
274
293
320
276
282
311
291
271
304
306
275
305
315
285
287
313
303
274
312
305
279
306
314
288
284
330
298
277
321
302
280
298
312
279
271
315
291
283
320
307
276
299
319
284
291
331
290
280
306
291
276
299
314
292
301
331
285
298
346
327
302
318
324
276
310
332
288
292
320
299
278
324
316
283
316
332
286
287
311
294
264
303
308
264
294
298
261
274
303
278
256
269
274
268
320
362
355
391
421
382
337
371
365
330
363
383
353
355
383
363
345
368
350
319
340
345
310
316
352
316
291
332
312
293
308
314
285
292
323
285
274
297
293
269
289
295
268
283
306
261
265
304
272
265
301
296
278
295
312
281
300
341
315
321
355
349
327
350
369
324
335
368
332
328
355
346
316
340
350
305
317
347
312
303
334
327
285
311
318
278
297
313
289
277
313
303
279
309
308
282
307
319
296
285
332
313
285
310
310
273
306
320
296
289
320
292
277
324
311
275
308
318
286
276
310
296
278
316
305
290
308
324
294
290
321
299
296
340
320
297
311
316
294
291
332
306
286
331
308
285
306
312
278
289
325
298
301
329
309
284
309
320
282
299
321
275
286
324
294
281
314
309
249
289
346
303
307
325
293
284
317
317
280
322
323
288
309
335
303
296
327
324
288
319
329
293
306
324
291
280
298
259
215
256
266
261
317
352
353
352
359
338
304
325
324
290
309
335
313
297
332
321
282
322
319
288
311
328
296
296
329
309
280
324
304
278
296
312
286
284
313
294
274
307
288
274
293
308
298
291
324
292
280
315
295
270
297
309
277
287
327
303
300
338
331
309
338
366
334
344
373
330
325
359
347
318
336
349
304
315
335
300
298
320
309
283
313
319
280
296
321
291
303
324
311
287
309
322
289
310
327
296
295
325
311
281
317
316
277
308
317
297
302
331
319
289
321
316
276
307
317
288
291
322
301
276
314
304
280
307
310
287
287
317
292
277
318
306
282
300
310
283
284
324
294
286
329
317
298
322
343
299
312
346
313
310
345
330
316
326
340
299
314
347
303
307
330
325
307
329
337
295
311
341
303
308
331
320
294
325
334
295
317
346
307
313
339
323
294
326
331
290
313
326
302
306
323
314
290
316
306
247
254
258
224
249
319
320
317
378
355
291
307
307
273
277
311
295
269
313
305
272
304
322
302
296
326
302
285
332
313
286
312
321
288
286
321
285
280
321
299
278
306
316
282
289
324
283
281
316
301
274
299
309
284
291
321
274
283
320
312
303
333
344
307
327
359
321
332
363
339
326
354
358
320
347
361
317
330
354
333
317
347
342
305
340
353
313
323
340
317
297
328
325
284
315
317
279
298
324
303
292
332
315
285
318
322
291
306
336
304
287
330
317
291
323
325
301
311
332
307
297
339
319
299
334
334
303
313
347
309
301
331
311
298
326
331
308
312
340
299
300
336
304
285
316
315
280
303
325
275
276
309
275
267
288
299
263
282
302
263
276
298
279
264
289
290
254
285
296
257
272
299
281
264
299
302
272
306
319
286
308
327
308
295
332
320
290
325
326
284
304
311
277
242
266
257
242
322
350
336
380
381
331
307
326
294
264
312
313
292
307
322
299
297
337
310
296
338
317
299
328
340
314
314
344
316
293
333
312
287
310
318
288
289
324
288
281
314
297
274
294
303
275
287
315
281
283
324
299
284
316
323
300
316
350
314
326
362
334
314
345
343
309
327
345
300
312
336
309
292
314
317
280
302
319
282
292
312
284
269
303
298
260
288
306
263
276
300
272
253
293
291
257
295
305
281
289
312
293
281
325
318
283
323
327
299
306
333
303
301
333
319
296
326
324
296
301
326
300
286
329
309
288
320
316
288
299
333
292
276
312
315
297
307
311
282
301
329
288
288
325
300
288
315
310
279
296
322
282
288
315
288
287
315
313
280
293
314
273
278
305
280
273
296
291
256
286
302
265
272
302
279
265
295
292
255
284
301
266
289
307
290
288
322
321
286
318
325
292
301
320
299
288
330
327
285
300
313
267
266
269
247
243
306
332
324
383
380
333
323
334
300
283
322
305
288
324
311
288
301
325
298
296
337
316
298
325
321
290
312
332
297
291
329
304
284
315
313
300
308
333
293
301
342
314
304
329
317
288
318
339
298
305
333
302
298
331
328
300
326
351
317
335
371
335
338
363
358
337
357
363
321
338
351
317
318
354
327
295
329
335
291
314
332
305
293
326
313
277
315
315
275
305
321
294
298
334
316
272
309
315
293
307
328
299
291
326
303
280
321
314
287
306
317
295
296
336
310
283
329
324
300
325
340
302
305
344
314
306
337
322
302
319
342
305
306
347
314
300
325
315
296
324
327
292
308
334
301
301
324
312
284
312
322
284
307
335
301
305
336
325
302
325
341
300
321
341
306
301
331
316
291
316
327
288
309
321
293
297
321
308
288
327
323
285
313
329
301
302
330
308
283
323
325
296
324
334
309
315
333
307
292
334
331
287
315
331
297
309
320
306
282
312
286
229
252
263
250
295
349
339
349
370
326
281
305
301
273
283
304
277
262
312
288
263
303
297
271
286
298
276
265
308
278
257
298
289
257
276
293
264
263
302
275
257
298
287
261
276
303
273
272
313
281
275
309
297
272
295
319
290
294
336
304
304
344
332
316
340
358
325
342
374
334
334
367
347
324
348
361
320
333
355
330
319
345
325
308
334
340
306
324
349
308
317
351
325
314
335
342
306
331
347
305
323
342
320
315
339
357
309
334
346
305
325
346
312
308
337
327
294
327
338
317
325
345
316
313
340
321
285
318
319
273
294
307
281
282
305
292
262
300
292
261
281
297
273
267
305
288
264
298
297
264
290
303
275
278
308
282
263
306
296
275
298
310
284
285
321
292
281
324
307
284
315
320
290
292
337
311
302
343
326
304
328
335
297
300
331
292
288
321
304
279
305
319
276
272
295
236
222
254
256
270
325
354
360
364
369
307
304
331
312
283
309
321
286
307
316
304
302
329
317
285
314
329
291
306
319
288
288
323
296
267
308
299
260
292
296
259
261
286
277
246
280
268
233
263
262
242
258
285
264
246
286
265
246
285
295
271
284
321
300
289
334
317
301
328
342
311
317
353
315
301
339
315
292
310
320
288
296
328
292
287
324
304
281
307
313
276
285
310
268
271
303
278
267
292
302
268
293
324
289
302
334
321
307
340
344
309
334
346
308
319
344
333
309
339
339
298
328
342
302
318
336
325
303
333
324
287
321
329
293
310
325
309
291
333
321
285
316
318
295
297
321
298
282
321
309
285
322
322
285
295
320
296
281
321
307
275
310
316
284
292
327
291
274
318
299
277
307
311
284
298
329
292
299
343
314
293
319
330
302
309
339
295
297
337
312
297
317
310
269
262
284
240
274
344
344
353
395
375
329
329
339
295
309
334
307
295
326
320
289
316
332
296
320
337
308
288
317
325
285
310
320
271
283
302
279
265
300
301
260
292
305
266
288
307
281
261
294
291
253
287
293
261
275
302
273
266
311
301
280
324
331
306
332
350
330
322
362
338
309
347
341
309
325
347
311
295
343
322
300
334
329
299
313
332
303
297
332
307
289
321
321
293
307
335
295
298
335
304
292
320
324
303
321
334
293
306
346
307
304
338
337
311
327
350
302
320
348
323
317
343
339
305
328
342
300
315
334
310
299
325
333
286
324
331
292
309
336
312
298
333
330
298
332
328
295
320
336
317
304
336
325
296
332
330
301
316
331
303
300
331
312
293
330
327
295
317
337
313
304
340
314
287
338
317
296
317
324
299
294
330
307
290
330
316
290
317
318
290
300
334
306
296
334
313
292
326
321
291
294
315
244
241
280
275
299
352
375
356
348
348
299
294
326
305
291
321
328
281
304
334
297
308
339
307
290
313
314
275
298
315
278
283
312
295
279
305
307
268
294
311
273
285
306
287
270
298
291
262
295
301
267
280
300
287
266
308
301
268
311
321
293
313
337
319
319
354
343
316
357
353
318
336
346
312
312
353
338
308
342
336
306
323
338
309
306
332
311
290
339
318
295
319
322
294
293
328
299
288
330
315
292
314
329
295
300
337
304
294
333
315
297
321
329
297
303
343
301
297
327
302
282
308
317
282
296
326
286
287
322
302
281
307
311
270
306
332
292
293
324
305
284
310
313
282
303
323
281
298
316
281
286
319
312
282
314
335
297
312
341
307
282
311
317
285
311
329
291
297
316
293
282
319
312
274
302
318
280
301
320
300
285
313
317
290
338
328
290
316
340
320
313
341
330
310
349
353
322
332
348
310
297
328
310
292
305
285
235
262
272
267
296
346
361
344
361
328
276
310
301
271
283
320
297
271
312
304
274
301
322
298
302
334
305
289
335
318
292
312
315
283
285
310
285
266
306
291
263
286
285
270
277
314
273
266
306
291
274
298
309
274
290
327
286
299
346
321
307
346
352
328
346
367
320
326
368
335
319
348
347
304
294
306
267
266
280
256
231
253
258
221
226
254
224
225
248
239
223
250
249
218
237
263
231
237
263
248
232
261
262
237
275
291
250
261
286
260
246
277
278
242
284
268
237
252
273
246
250
270
264
231
267
284
253
274
287
276
279
327
315
284
329
319
304
324
342
311
297
335
317
295
329
328
298
313
331
307
292
335
314
297
329
320
301
311
332
301
293
336
308
288
313
307
292
313
330
288
296
328
292
277
329
307
283
290
310
276
278
313
287
278
312
301
283
301
312
278
285
324
288
286
318
309
290
314
324
279
282
309
250
236
280
274
290
347
379
363
387
387
328
320
341
328
309
343
347
308
328
357
324
332
364
346
329
354
357
303
339
359
321
323
353
335
308
348
340
300
329
332
305
318
339
318
295
326
316
286
312
314
288
297
321
295
288
335
320
294
328
330
309
327
358
339
333
373
355
338
381
372
339
349
366
336
326
371
343
320
351
346
312
317
343
313
310
343
310
302
333
324
303
317
336
305
304
341
317
300
332
321
298
318
343
311
312
352
321
319
352
347
327
344
363
335
349
380
343
336
364
342
319
341
357
314
328
358
318
310
337
330
309
346
346
311
328
361
340
338
366
348
331
352
360
320
345
366
330
334
360
346
323
349
356
330
351
354
332
340
366
335
324
365
356
314
342
348
323
322
346
327
304
338
327
295
320
326
294
296
327
304
285
338
341
299
335
344
306
322
342
310
294
338
302
271
326
331
271
271
319
296
241
280
282
233
237
231
207
245
318
299
311
347
292
249
274
265
235
252
276
230
216
258
233
227
265
274
249
279
312
279
290
330
301
294
322
314
281
304
332
299
316
349
321
308
343
338
301
324
341
296
302
319
284
276
305
290
259
291
305
265
294
323
288
301
335
327
305
330
345
323
348
357
323
335
365
353
320
360
357
317
350
362
329
334
337
331
311
351
346
301
334
344
313
316
338
320
303
341
335
301
327
338
299
297
336
305
280
326
314
275
303
309
273
272
307
285
269
303
281
270
297
288
268
290
323
293
282
321
316
308
343
347
315
323
352
306
308
339
313
299
329
324
291
304
332
289
297
327
294
287
314
318
283
295
318
273
283
310
282
277
315
314
278
304
316
285
301
318
296
286
318
310
270
302
309
278
296
316
295
276
317
314
269
292
286
233
219
221
196
197
276
302
293
362
359
315
316
329
299
282
317
306
278
320
316
289
311
327
301
288
325
304
290
340
335
307
319
335
300
289
325
303
279
316
305
276
291
312
281
274
312
286
272
302
292
266
279
299
266
270
308
277
273
308
301
285
312
332
302
313
350
320
316
351
336
314
335
350
314
320
354
317
310
340
327
296
319
330
291
328
341
310
302
323
310
292
325
332
288
307
331
291
299
326
305
290
314
323
287
308
322
287
298
320
297
285
315
313
264
295
310
268
290
314
286
278
306
300
271
306
317
271
292
309
289
287
323
315
286
325
319
280
295
310
291
287
317
292
256
307
313
284
313
299
285
291
331
296
255
292
287
263
289
306
281
278
314
289
269
311
298
271
295
302
276
281
313
280
264
310
294
267
285
308
282
290
329
292
272
315
303
280
297
319
292
295
339
309
292
351
309
240
242
247
230
265
330
306
325
382
360
310
331
324
279
290
325
289
297
325
312
287
299
310
294
322
342
292
282
312
311
295
326
317
269
279
317
281
263
302
287
271
307
303
253
303
332
294
307
328
326
313
353
361
324
353
366
330
350
377
347
333
366
365
329
365
364
318
327
348
326
314
343
324
279
309
306
270
293
311
283
270
304
286
257
291
291
259
278
295
279
270
310
288
254
276
274
251
293
306
292
285
307
280
263
302
297
267
286
306
280
298
330
295
283
325
304
257
301
310
285
278
307
286
279
321
310
280
298
316
299
303
341
299
293
331
312
300
323
323
293
298
334
296
294
333
320
294
313
322
291
300
329
293
291
327
304
299
338
352
317
342
364
318
325
359
349
331
351
362
327
341
362
325
337
369
350
340
368
369
338
366
391
345
348
377
353
344
368
367
323
340
359
313
320
342
333
307
335
327
280
305
294
239
241
261
246
270
330
342
340
366
345
282
290
302
287
272
304
290
264
294
309
271
285
307
291
287
331
313
277
319
316
287
306
314
291
283
322
313
279
319
312
269
283
313
286
279
324
316
271
309
300
269
286
308
276
270
319
292
267
308
303
282
312
329
307
307
347
323
306
352
331
300
349
341
306
316
350
318
306
347
326
311
340
348
320
323
360
333
331
365
339
325
362
362
326
328
359
323
315
350
319
300
344
342
307
321
350
312
312
352
320
307
334
327
301
315
335
291
298
327
291
284
313
313
282
298
331
287
302
330
300
300
334
320
293
315
332
292
311
340
309
299
327
321
285
313
323
287
297
317
292
285
312
311
277
306
303
269
295
310
287
293
315
298
269
304
307
272
301
314
285
292
320
308
279
317
310
274
307
317
289
297
324
307
277
308
297
248
255
258
226
257
324
333
342
392
359
305
319
314
278
292
314
293
280
318
304
277
311
311
285
300
321
290
282
323
293
269
303
311
285
297
311
285
277
314
285
258
300
289
269
286
300
268
268
321
274
255
293
280
257
276
301
274
279
321
300
300
330
329
306
331
358
323
331
362
330
313
340
338
307
327
340
295
308
329
305
297
323
318
286
312
328
291
303
333
299
294
325
318
291
315
333
293
315
335
300
296
323
316
286
315
327
291
312
327
300
299
330
324
290
329
326
297
316
333
303
303
328
313
288
326
326
288
309
332
302
300
335
322
294
328
317
293
317
323
294
299
324
302
289
327
313
288
318
317
291
292
330
311
293
333
318
285
316
318
293
308
329
310
294
333
321
294
326
324
293
295
332
299
284
329
300
281
313
315
285
300
337
303
286
329
305
289
313
318
287
298
324
290
293
326
297
285
308
305
259
245
269
226
246
307
313
316
373
363
297
299
306
257
270
309
283
272
312
306
281
303
321
277
282
303
314
279
277
257
219
300
312
242
250
274
233
214
298
326
289
325
345
305
297
324
275
273
300
319
318
384
415
386
427
466
451
448
467
440
432
502
497
453
471
485
442
412
416
384
325
339
327
274
282
277
243
234
253
232
207
250
242
202
227
234
223
232
271
247
228
261
254
233
252
257
229
248
275
255
226
286
265
242
277
286
256
248
300
281
264
307
295
264
295
310
287
278
300
284
273
316
295
271
310
307
283
303
323
295
288
325
300
282
317
316
288
302
328
292
280
328
312
296
316
316
296
300
326
290
289
318
299
305
327
317
291
312
340
304
294
339
306
285
314
308
297
309
320
283
290
328
293
286
319
306
285
309
334
291
298
324
296
299
328
318
293
315
331
293
310
337
302
306
338
333
299
314
330
287
313
336
300
297
323
313
286
307
308
251
255
264
224
254
319
332
324
383
364
300
312
318
279
288
312
299
280
316
317
283
308
316
288
294
317
304
283
314
309
276
310
316
280
288
309
280
259
299
291
254
290
297
261
268
297
271
256
287
270
238
261
255
225
233
245
241
240
270
249
240
288
286
261
299
318
289
296
328
307
284
324
309
273
296
308
290
287
326
298
274
320
303
270
303
317
284
292
320
301
296
338
334
313
345
341
314
315
349
327
314
347
318
303
344
352
313
321
353
323
317
363
333
311
349
342
322
334
364
343
333
372
344
327
355
346
318
338
359
313
319
355
331
305
348
337
303
314
342
309
310
338
298
293
334
319
312
322
326
298
298
334
311
304
315
310
295
325
337
300
294
324
296
323
335
322
286
318
346
301
313
336
307
299
327
330
293
304
332
287
300
332
295
296
322
312
286
307
315
291
330
337
285
299
341
331
299
326
332
295
313
338
307
308
325
299
277
298
301
229
245
265
256
297
345
368
367
358
335
291
315
308
279
301
326
330
300
294
299
291
311
308
196
232
340
321
299
320
310
284
327
322
275
283
306
290
290
351
374
358
417
443
427
447
483
455
444
483
451
416
442
428
385
388
390
342
311
347
314
283
327
307
270
293
302
271
268
308
278
260
287
268
254
279
299
258
257
305
266
253
281
272
256
265
276
247
251
288
249
256
277
273
248
272
288
247
258
295
261
250
287
273
247
271
278
239
252
282
253
253
292
275
242
260
278
237
262
290
256
256
289
282
274
293
304
268
289
319
307
293
315
311
307
344
347
310
330
358
319
323
348
330
299
329
324
288
309
318
289
284
315
293
272
302
298
266
292
305
279
277
311
290
266
298
291
264
296
302
279
282
307
278
266
302
271
230
250
259
259
296
354
357
346
367
326
280
308
300
267
280
322
310
295
335
304
283
320
318
288
304
330
293
284
323
316
286
334
325
298
312
326
303
302
350
300
277
317
300
272
286
307
275
277
310
277
273
306
302
273
296
320
288
293
330
306
307
335
327
320
344
362
323
332
360
318
311
339
332
305
332
352
308
321
349
316
307
326
335
310
331
342
299
318
343
317
308
337
326
292
328
334
291
311
339
298
291
319
306
280
315
324
283
316
327
294
279
309
314
282
304
308
274
304
325
292
296
328
315
286
325
322
290
326
332
307
310
341
320
296
337
330
297
327
337
307
312
346
322
318
349
337
312
344
347
315
318
349
319
309
341
319
302
334
327
306
316
338
303
304
347
322
308
341
334
307
318
339
309
303
344
320
297
328
318
292
309
338
297
300
343
312
300
331
332
309
334
348
311
327
364
325
316
352
343
310
305
301
255
262
308
309
320
371
380
340
335
337
292
294
326
301
299
334
324
298
321
339
299
312
336
306
306
344
330
300
322
323
284
298
316
277
286
314
308
279
313
312
277
301
314
276
270
295
280
254
287
287
248
272
290
256
264
298
286
267
308
302
274
307
319
303
307
332
319
303
344
326
300
336
336
308
316
334
302
288
325
309
285
316
314
288
289
330
298
294
326
304
287
319
312
287
298
325
303
289
326
302
278
317
311
285
294
318
280
274
312
287
270
302
294
271
283
307
283
282
321
292
270
309
300
268
300
320
291
292
325
299
288
328
314
293
306
319
298
303
332
300
292
328
310
287
311
318
285
295
321
295
304
333
314
298
322
334
305
306
335
300
299
335
312
286
320
331
293
313
343
305
307
335
324
306
331
332
301
326
345
298
300
327
306
285
315
324
290
312
328
290
297
325
313
297
327
322
283
308
326
288
297
312
284
262
270
249
214
239
275
265
324
358
343
314
315
304
283
302
321
289
301
332
308
285
316
308
280
319
324
289
306
327
315
307
347
328
295
331
327
299
325
343
312
302
329
317
286
326
316
280
301
310
283
285
303
283
264
305
291
264
289
304
281
289
328
310
293
340
332
308
341
350
328
323
349
316
293
343
337
303
336
334
316
326
348
319
301
333
312
295
337
342
308
316
354
324
293
325
304
279
310
319
291
306
343
304
289
326
303
286
312
314
301
292
325
289
292
327
298
287
315
329
293
312
334
297
296
321
307
299
323
323
289
314
335
293
303
334
307
297
323
330
296
319
345
293
314
339
316
303
332
327
288
322
341
300
313
337
314
302
332
327
283
316
326
287
301
325
298
285
320
311
277
313
323
285
301
326
301
297
325
313
301
318
320
280
302
309
274
275
283
275
238
293
293
260
295
308
282
290
320
302
276
313
305
274
307
315
285
302
325
304
277
307
276
232
263
277
272
319
354
358
341
372
319
285
305
304
278
294
317
303
294
324
307
291
331
330
298
313
339
312
298
335
315
291
326
317
284
301
326
297
291
323
295
264
309
311
272
295
300
270
272
304
275
262
304
296
274
300
305
280
291
328
311
305
349
350
329
349
359
340
347
377
342
333
368
341
322
342
351
316
321
353
311
306
341
313
299
337
332
294
312
330
287
304
341
300
294
319
317
279
298
322
283
289
319
295
282
301
316
273
305
327
287
298
326
301
291
328
326
289
307
323
283
297
322
295
282
319
320
291
316
318
283
303
306
279
282
307
297
267
302
304
270
297
315
283
275
309
294
273
301
298
278
307
320
282
289
311
296
275
307
303
268
301
319
297
292
309
288
266
300
298
266
305
303
272
286
317
290
268
306
299
271
306
305
264
276
309
275
250
276
247
209
241
263
278
318
365
352
325
342
301
279
307
289
271
291
320
295
287
327
299
282
320
317
293
304
328
303
283
323
294
272
310
300
277
288
307
278
277
314
287
273
302
297
274
295
316
279
279
319
282
272
313
302
278
296
312
285
294
337
315
318
363
341
338
380
389
323
310
351
314
316
335
315
308
325
279
265
286
289
265
263
310
331
304
320
321
291
294
318
288
299
345
344
352
399
421
388
402
418
377
389
419
394
378
371
383
368
386
389
343
346
370
331
312
320
308
270
278
281
235
230
260
236
217
256
260
226
243
265
217
232
254
225
228
265
262
242
273
298
269
297
326
300
302
328
312
292
309
318
287
303
324
277
307
321
297
295
315
317
283
305
326
278
300
331
295
284
308
310
291
310
308
281
299
324
296
293
315
304
276
306
325
281
301
325
296
284
300
287
270
296
299
272
292
306
279
279
308
296
253
270
255
214
247
285
290
316
371
371
337
340
327
276
297
312
286
282
329
298
280
307
308
282
307
325
284
286
315
298
271
324
332
284
307
313
286
290
316
286
264
314
297
279
311
304
279
271
307
278
255
296
282
259
291
302
279
285
314
296
293
346
331
316
357
363
334
358
391
351
357
394
368
352
378
370
339
348
367
345
340
380
358
339
376
369
351
372
388
367
373
405
372
357
403
381
342
370
377
337
331
351
316
299
333
313
301
320
320
311
315
329
296
292
313
309
281
312
313
288
294
320
303
278
342
295
253
313
289
265
281
304
277
278
311
291
277
314
308
288
304
323
297
294
326
304
286
316
312
285
301
325
297
288
320
295
272
304
306
279
305
315
289
299
323
278
274
324
313
295
319
330
292
296
328
305
299
340
315
293
314
315
293
300
334
307
302
335
298
275
314
326
291
283
323
301
291
302
261
234
281
331
328
374
441
396
382
400
358
340
360
354
309
334
361
311
306
336
293
294
329
339
301
318
336
292
300
327
296
289
320
305
281
307
317
278
294
325
282
268
313
289
258
279
284
261
278
311
257
262
294
276
257
294
313
270
288
327
301
311
335
318
300
335
350
318
342
367
325
328
359
334
314
343
344
307
318
337
289
291
320
295
277
299
301
271
292
320
275
285
316
293
287
318
315
284
297
321
282
296
334
299
298
326
323
295
327
342
309
323
343
314
312
345
334
299
328
349
302
310
332
318
317
341
354
303
336
344
300
325
346
305
309
336
321
294
328
324
291
318
333
295
302
324
309
285
311
317
273
312
326
293
302
329
308
292
330
330
294
321
328
287
298
313
277
251
265
256
243
306
346
322
372
377
332
302
311
290
254
287
303
260
288
302
280
281
314
301
268
299
301
261
284
309
293
261
301
296
260
293
296
258
283
296
272
266
301
282
248
294
295
255
273
286
253
258
283
274
250
288
281
250
281
289
263
280
313
295
279
321
314
277
310
315
287
291
315
291
274
308
299
277
301
309
277
282
320
291
272
315
305
275
299
300
270
286
308
274
261
299
279
251
288
284
261
273
295
268
255
290
271
248
288
285
258
279
300
281
270
312
294
265
310
306
276
290
307
284
274
317
295
276
321
307
286
305
326
295
291
324
302
281
318
306
280
300
317
283
286
306
267
237
270
256
259
329
354
350
357
370
322
288
314
288
274
301
312
285
294
330
293
289
329
310
287
310
319
287
301
318
279
278
311
287
270
298
305
272
284
310
278
277
309
284
267
292
294
264
282
309
271
276
309
284
275
304
311
288
311
338
304
324
365
337
327
362
357
333
353
371
328
339
366
329
318
342
340
304
331
359
305
325
348
314
309
332
334
312
337
351
306
319
342
304
330
344
330
304
330
336
295
314
334
303
302
325
308
291
324
333
296
324
343
309
311
341
326
305
338
344
304
329
345
305
313
336
318
289
314
327
285
313
314
282
295
314
289
275
308
308
273
297
307
266
263
293
284
272
298
286
252
283
284
247
252
281
268
251
282
273
238
274
272
233
233
246
220
216
277
304
302
355
360
314
310
325
289
284
324
301
277
314
308
281
298
316
288
276
316
295
271
310
296
263
285
298
256
268
300
276
254
292
287
264
293
285
271
283
307
288
273
314
298
273
300
304
281
285
311
289
276
319
300
283
320
319
307
323
346
323
315
353
342
324
356
353
328
333
356
325
316
352
328
304
339
336
307
320
341
310
311
339
315
297
332
328
305
317
339
304
292
344
305
295
331
318
300
310
333
297
295
333
298
293
321
315
291
315
337
304
315
344
314
313
350
341
317
338
357
318
320
359
327
325
348
339
314
336
345
309
322
348
309
310
336
323
304
327
331
300
306
332
307
311
343
318
302
325
338
300
316
348
308
313
344
323
304
325
330
298
318
335
294
300
333
313
295
315
317
283
310
324
286
299
323
296
278
302
300
269
295
310
270
285
305
278
272
306
294
267
303
315
272
297
321
288
285
315
309
281
314
319
295
319
331
306
311
346
332
303
329
327
281
289
284
249
244
286
303
296
351
379
327
324
327
287
293
314
287
270
313
305
273
306
312
282
282
316
307
270
308
313
286
313
320
287
285
309
308
276
315
307
277
308
308
277
290
327
287
277
307
308
276
308
305
281
300
314
297
284
325
313
289
325
325
308
324
357
342
332
371
360
336
372
369
339
351
370
339
325
364
356
329
368
348
319
333
358
330
335
360
337
313
355
337
314
337
352
322
321
353
323
301
347
341
309
326
326
302
313
346
317
310
351
329
301
331
328
303
314
334
317
306
344
323
294
325
320
301
315
327
299
298
342
318
297
339
330
304
316
335
310
309
340
320
308
339
325
302
324
338
306
305
332
308
294
331
313
293
316
325
293
294
331
299
293
334
318
300
326
328
295
301
333
303
300
336
309
296
316
328
298
305
329
302
287
325
294
279
308
305
281
297
319
283
285
324
298
291
321
306
291
311
333
303
309
345
310
291
324
322
289
317
330
290
293
327
291
264
279
251
230
261
312
301
312
382
360
333
330
305
285
310
333
298
309
325
293
304
325
308
291
310
326
289
304
328
292
290
313
301
284
300
311
286
293
325
293
291
325
304
286
315
313
272
297
309
271
281
302
289
269
303
306
268
289
318
283
300
330
300
302
343
345
318
339
355
319
331
362
343
329
353
344
307
324
341
307
321
341
303
298
333
319
301
333
336
287
318
339
298
305
325
306
293
316
324
287
310
327
287
298
319
301
284
315
320
288
318
321
292
300
327
317
293
326
329
295
327
341
306
314
340
326
305
341
335
296
325
344
321
328
340
310
306
333
327
282
316
317
283
301
320
299
287
317
306
278
311
314
279
301
320
296
281
311
310
285
320
322
299
324
342
310
302
337
320
297
331
326
290
311
319
295
291
320
298
272
324
314
288
321
330
304
305
328
311
293
325
306
281
318
326
296
294
324
297
280
322
303
280
309
319
291
299
334
302
290
332
313
287
317
317
285
293
314
293
275
313
276
243
262
262
231
269
332
325
340
396
360
309
322
318
280
290
319
295
296
345
324
301
337
324
301
316
337
305
295
337
308
294
329
315
287
300
318
285
287
314
281
279
312
296
272
293
310
274
273
310
279
266
294
277
271
298
305
275
288
322
287
290
328
319
305
330
353
326
332
369
332
326
357
339
316
341
344
312
323
346
309
314
353
320
307
328
320
293
316
336
285
311
349
318
310
325
323
292
306
328
287
295
326
303
289
312
320
302
320
337
293
297
332
301
297
325
310
285
309
317
285
301
326
286
277
308
295
276
303
311
278
293
319
286
285
321
306
284
310
318
281
299
316
271
285
319
304
280
311
317
279
303
323
282
293
316
301
286
310
313
276
299
320
278
288
312
290
273
304
308
266
295
305
275
289
323
301
291
320
320
290
323
339
298
313
332
313
305
332
330
301
329
332
297
319
333
313
304
330
321
290
333
337
296
316
330
314
295
323
319
285
326
316
284
310
321
295
289
327
310
269
319
311
283
305
314
281
254
274
249
224
292
325
313
350
386
352
319
340
311
286
331
316
286
315
332
294
297
330
305
287
316
300
277
303
306
282
287
319
290
274
313
292
276
302
307
285
284
319
290
278
323
300
275
304
299
274
280
299
275
277
313
292
278
308
316
308
305
343
315
312
359
340
330
360
356
332
343
368
333
339
374
340
327
353
349
324
332
357
321
320
354
322
314
348
329
307
325
338
299
306
333
298
291
325
316
287
305
325
291
298
349
293
293
329
312
296
315
326
294
306
342
300
299
333
312
298
323
334
298
307
338
303
300
335
311
301
339
320
297
311
332
292
298
327
298
302
320
309
288
308
327
289
296
326
292
286
316
302
283
299
312
278
291
328
291
289
325
311
292
313
324
286
298
325
288
288
318
303
286
304
318
285
300
326
289
293
322
297
284
309
311
281
306
332
300
301
339
308
294
325
331
301
317
343
303
309
338
314
303
331
331
296
313
336
296
307
341
316
306
336
333
309
334
351
309
326
356
321
320
348
339
316
338
338
294
303
308
254
256
290
305
316
345
381
353
355
357
308
309
334
327
309
333
337
300
321
342
304
306
331
319
293
318
327
287
309
329
287
296
326
303
285
312
315
278
299
318
280
292
324
296
278
299
293
261
287
298
257
274
297
269
264
296
302
277
302
317
285
312
337
311
314
341
331
297
332
345
302
322
339
313
312
336
321
291
329
328
291
317
336
301
307
331
317
289
326
325
290
309
325
292
298
326
311
284
315
321
286
316
328
300
300
327
318
300
333
329
292
325
330
297
307
321
303
276
323
316
282
316
320
288
303
320
295
286
318
311
279
308
311
279
302
312
290
282
316
304
282
312
316
282
299
320
298
290
315
302
279
313
311
282
303
317
287
285
316
299
273
309
295
272
307
311
278
300
336
325
295
325
323
290
322
329
307
308
331
315
296
334
340
298
326
316
288
308
340
310
300
338
329
287
317
316
283
301
326
296
284
319
306
277
318
300
274
311
323
292
278
324
306
289
312
308
277
284
307
284
279
306
283
265
304
292
263
274
286
245
232
251
231
232
305
324
303
359
351
305
301
320
283
263
317
313
278
305
310
291
302
354
301
280
327
312
275
312
311
278
287
312
287
273
311
290
260
294
292
262
281
292
266
254
293
268
246
286
279
244
268
282
253
258
298
284
270
312
303
284
311
329
303
304
353
327
308
344
342
317
342
351
322
327
352
329
308
342
324
315
332
333
315
307
331
300
277
317
303
284
313
326
292
315
341
313
308
338
317
293
319
319
295
303
321
295
288
323
300
277
313
302
277
298
321
294
295
335
311
292
322
307
285
308
321
296
292
321
288
282
329
306
285
308
318
288
284
327
292
281
317
300
274
302
306
283
286
314
285
282
326
301
287
316
316
283
289
326
291
291
331
304
289
320
317
292
306
324
290
294
327
298
288
319
312
291
308
336
298
305
339
311
314
334
323
301
322
335
303
309
341
310
305
336
315
297
317
330
297
299
324
289
288
322
297
283
314
315
286
300
326
285
283
325
307
282
299
305
290
310
336
285
277
293
248
239
274
312
321
352
403
363
348
356
318
298
329
333
302
324
337
309
313
343
315
305
341
344
315
337
359
314
327
354
321
314
344
333
302
322
333
291
301
329
299
298
325
311
286
302
310
275
288
309
277
278
300
290
270
294
306
273
296
321
295
301
332
327
307
337
345
305
340
366
331
339
365
346
319
346
356
318
345
355
310
324
344
327
302
321
324
291
327
330
293
309
332
307
293
315
315
290
316
326
288
307
325
301
294
325
317
292
315
328
285
303
325
294
284
315
306
277
313
322
289
306
325
295
301
326
314
293
327
330
289
314
334
300
303
330
311
282
313
312
272
294
311
284
285
310
300
278
312
306
270
298
307
281
286
305
286
269
310
311
269
296
318
287
289
303
295
281
315
302
270
299
303
279
285
310
286
268
300
287
261
297
301
269
285
310
284
269
300
300
274
308
304
273
299
316
295
291
322
314
287
313
310
286
316
327
295
292
323
308
286
322
314
272
294
280
243
252
298
319
326
381
395
346
361
338
304
308
328
313
301
340
328
292
324
327
286
307
314
296
299
319
308
277
312
320
288
315
315
283
294
312
291
281
311
306
270
302
315
277
286
305
284
270
301
294
264
298
304
269
281
307
292
281
319
318
294
326
336
310
333
352
338
317
351
338
308
352
346
310
318
338
320
308
336
318
290
325
319
283
302
303
274
270
300
285
255
295
289
261
280
291
261
257
289
274
248
290
285
251
279
289
251
256
280
262
240
280
275
246
279
287
264
269
295
279
265
306
295
264
291
294
268
283
305
283
266
309
304
269
299
297
270
284
310
282
275
317
302
281
318
312
293
308
335
309
302
343
320
302
342
337
307
324
343
311
301
333
303
284
316
302
280
298
314
286
288
327
299
283
319
303
278
292
300
269
290
332
297
279
316
296
278
302
314
285
285
315
280
275
312
284
267
289
298
275
284
319
294
284
318
297
279
309
309
286
293
320
294
286
326
303
279
297
273
220
229
269
270
296
353
350
354
372
338
301
305
319
285
290
338
295
287
328
315
289
303
322
301
299
331
301
295
321
306
282
302
310
285
294
321
287
278
312
294
273
301
309
274
283
311
279
270
303
277
264
295
292
268
280
309
277
273
316
294
281
321
315
296
317
341
311
306
353
328
317
348
329
303
342
343
308
306
344
309
299
340
326
300
326
335
304
310
338
309
294
332
316
295
321
322
295
309
333
304
297
335
325
295
328
345
315
318
350
322
316
351
326
306
334
334
307
315
339
300
301
336
305
305
322
321
295
307
334
298
296
330
298
287
319
313
287
301
327
297
299
335
302
289
325
306
283
295
314
283
286
320
287
282
311
298
278
300
317
280
289
327
294
286
319
300
283
308
321
293
303
337
304
305
340
324
303
322
332
303
313
335
308
314
345
330
314
341
351
315
330
359
320
326
348
327
316
336
348
313
333
356
310
317
353
322
314
338
332
309
329
354
309
317
342
295
276
288
282
270
331
374
359
394
395
345
319
334
329
296
304
309
271
294
338
300
247
245
276
294
339
342
285
290
316
283
293
318
295
280
297
305
295
295
328
335
355
387
371
352
384
390
360
377
398
366
375
398
370
343
370
376
345
360
375
328
340
373
344
332
361
349
321
353
368
323
331
346
313
306
324
303
267
301
312
278
283
311
284
274
297
293
264
298
307
267
284
322
273
294
327
297
276
303
303
272
299
325
285
290
318
303
299
313
313
280
302
326
288
295
316
297
274
301
299
271
294
307
271
272
301
292
269
290
297
265
293
310
276
287
303
283
266
291
301
270
290
313
277
287
306
283
271
297
296
268
300
316
285
291
308
287
284
312
297
252
300
320
269
295
327
297
284
319
301
270
299
293
254
284
304
268
263
296
285
257
299
306
269
291
311
279
278
311
297
265
297
314
267
292
308
267
255
254
232
207
257
292
286
333
376
342
320
312
285
250
286
293
258
293
304
263
291
307
296
280
311
306
277
306
313
285
287
311
295
275
314
305
273
305
303
266
282
302
277
261
297
286
254
297
294
266
279
299
280
270
297
290
263
305
333
280
288
307
302
311
363
345
313
374
362
316
340
358
335
328
358
347
313
350
340
309
336
352
320
327
358
336
308
346
342
319
343
344
311
312
339
323
309
340
330
296
339
324
289
317
327
300
289
341
310
283
336
341
304
323
324
307
301
328
281
248
328
335
301
315
330
309
307
334
320
291
324
323
285
307
315
295
298
330
315
289
327
323
296
317
328
300
298
330
317
293
323
306
284
331
336
293
295
324
299
285
320
305
275
313
315
276
290
303
291
283
314
312
273
314
319
290
312
330
299
295
327
317
276
323
324
300
321
335
301
295
338
319
294
336
328
298
323
338
303
287
307
269
224
250
237
227
293
326
320
353
366
310
278
310
287
266
302
304
277
281
313
293
275
313
298
278
307
309
282
288
323
307
280
326
307
275
304
304
281
295
324
299
288
324
310
286
314
311
288
295
318
292
279
322
300
287
321
304
290
312
341
304
297
351
329
314
360
357
333
356
386
348
343
385
365
338
367
348
327
351
367
325
308
337
332
313
343
331
306
326
325
306
298
337
304
288
330
317
296
312
316
292
300
326
308
299
327
308
278
316
312
290
305
315
291
283
322
301
270
305
307
282
297
305
289
282
318
299
272
302
309
285
298
309
291
298
324
308
285
317
312
281
305
310
280
280
311
293
284
328
312
285
313
315
296
311
327
305
289
327
309
288
325
323
283
297
321
309
291
321
304
277
311
315
289
307
331
298
300
332
305
284
320
318
286
300
321
302
294
326
303
275
296
265
231
242
262
264
301
360
364
359
362
330
293
304
309
286
297
320
298
282
325
310
286
318
316
291
304
330
301
285
329
308
284
322
321
293
306
328
293
281
324
311
277
308
311
281
298
312
304
270
298
282
255
293
284
255
279
299
279
275
306
302
286
341
336
302
337
349
320
327
357
333
311
351
350
320
343
349
314
319
346
323
299
335
316
295
326
323
295
301
323
301
293
317
318
291
319
320
293
306
331
307
294
349
326
295
316
308
295
307
316
299
286
320
297
272
313
321
286
304
328
292
288
335
302
281
321
313
290
309
323
303
294
338
307
282
338
317
291
303
321
293
291
324
301
277
329
325
298
315
315
307
317
343
314
298
335
318
290
314
326
306
310
337
316
299
334
319
295
323
323
293
302
331
306
292
334
315
293
326
331
309
312
340
310
298
340
323
303
333
327
297
300
306
258
243
274
276
304
360
372
375
375
361
309
305
335
305
293
337
326
300
317
328
300
297
335
307
289
333
319
295
318
326
296
295
323
293
284
321
302
278
302
314
288
284
326
295
282
318
297
282
296
302
281
288
312
277
280
320
306
289
317
329
303
317
371
335
314
352
340
320
343
341
311
332
375
315
297
347
318
310
328
328
295
300
314
288
287
326
297
283
314
299
284
304
322
288
288
319
289
278
312
303
280
290
302
268
270
312
289
282
311
305
289
297
309
285
293
332
294
298
328
309
292
324
330
287
297
331
291
290
326
303
291
308
312
291
303
338
298
301
333
317
300
330
331
299
309
340
296
296
332
306
285
324
326
295
312
333
302
301
331
299
283
325
309
272
297
318
281
291
325
288
268
319
302
269
303
324
288
292
312
301
297
326
308
283
312
311
282
305
328
284
267
277
235
222
254
300
301
322
409
356
324
338
287
277
313
305
288
305
328
295
292
327
299
294
326
312
297
307
319
284
295
346
291
280
321
304
282
318
306
264
280
304
237
240
309
303
269
275
268
234
241
272
233
216
257
236
228
266
260
238
268
303
276
274
328
295
294
327
334
315
341
375
338
356
387
353
335
362
366
338
350
371
334
334
367
335
313
333
327
293
304
327
279
292
322
295
274
315
317
293
306
327
292
289
332
294
286
315
305
275
291
305
266
272
305
277
272
308
304
287
311
329
306
321
363
331
338
389
387
374
405
414
376
398
429
390
393
430
403
379
401
393
350
361
379
322
321
348
325
300
316
325
288
300
316
276
278
299
271
259
283
279
248
253
273
223
233
270
241
230
265
262
236
267
293
264
271
301
267
264
295
285
253
273
289
250
258
287
257
250
277
267
241
242
234
195
210
255
260
277
330
325
289
281
286
247
248
277
257
267
298
282
251
273
286
257
273
308
275
277
302
281
264
287
297
265
285
311
272
276
309
293
264
296
287
267
285
300
254
263
296
265
257
286
290
267
286
307
269
285
318
287
293
327
342
311
332
335
312
335
373
354
348
383
365
344
366
381
329
331
360
345
352
375
341
311
353
362
319
332
363
325
326
360
344
319
347
348
314
329
359
316
312
347
318
307
325
334
306
320
350
324
321
333
328
338
357
352
324
343
368
329
334
363
348
336
362
365
340
356
377
337
347
378
342
332
353
338
303
331
345
310
324
351
308
299
338
325
300
317
329
293
304
332
299
294
326
312
306
324
333
310
326
345
308
318
349
327
309
332
330
296
313
343
303
316
348
321
306
332
333
302
309
325
285
290
310
273
274
312
318
286
299
322
282
291
336
311
302
328
315
304
329
351
308
322
356
318
313
334
325
307
324
329
289
291
290
235
227
254
283
297
339
376
341
332
343
299
291
314
312
289
310
322
289
290
302
274
294
314
274
249
295
312
266
289
314
274
275
300
279
259
272
275
251
280
285
265
260
306
282
252
273
280
250
279
310
279
294
321
308
320
359
355
316
345
377
345
362
383
352
342
365
360
330
353
363
322
335
352
312
299
310
303
281
305
308
271
284
302
263
276
299
282
260
292
294
254
284
308
269
278
298
265
238
265
262
236
269
289
247
258
295
270
266
305
306
274
287
306
267
281
310
281
282
319
313
280
309
316
277
287
301
274
276
298
284
250
284
295
250
269
290
261
263
288
281
277
281
295
260
284
303
268
264
284
277
256
278
278
246
260
294
255
264
282
265
253
268
291
258
276
289
254
270
292
264
258
290
288
264
293
304
265
280
303
284
279
310
307
273
313
350
297
314
331
315
317
354
368
369
384
388
368
382
392
361
363
381
374
358
376
369
328
343
348
298
292
303
265
231
250
254
250
306
348
337
338
345
293
271
287
287
244
276
297
269
282
301
277
252
283
279
254
294
308
276
280
302
276
269
292
285
251
274
286
249
260
283
259
254
280
271
245
272
280
229
256
277
256
257
284
279
266
317
325
284
298
310
292
309
350
330
313
351
356
324
356
372
345
344
360
352
327
347
364
324
342
359
330
337
362
350
329
358
365
324
357
377
344
348
359
343
316
349
335
325
377
367
313
321
350
331
320
342
338
293
313
333
301
290
307
287
283
308
303
267
295
309
271
290
314
293
279
311
307
279
319
324
288
297
312
297
296
344
335
292
332
340
303
336
354
327
324
355
344
315
351
348
303
324
350
321
316
339
331
309
339
337
308
334
343
309
314
336
328
298
327
327
292
320
334
299
307
334
317
303
333
333
290
317
323
286
294
315
291
270
310
298
279
322
324
288
304
328
299
267
275
270
239
289
337
338
370
408
366
331
342
330
291
321
333
304
321
339
310
297
336
329
298
333
339
295
315
334
307
305
332
320
280
304
310
288
319
323
297
298
328
314
287
317
308
271
302
316
286
292
319
302
265
307
318
287
326
343
303
316
339
330
322
357
355
325
378
370
332
341
365
356
329
357
361
312
340
342
308
318
337
313
312
331
322
311
345
354
312
329
343
321
313
342
331
302
331
332
293
308
314
293
289
325
309
281
330
328
295
322
332
310
307
346
325
304
348
345
307
335
342
303
310
324
317
300
333
330
286
314
331
291
312
328
303
290
323
322
294
318
325
290
309
320
295
296
313
307
290
323
327
284
315
321
300
301
326
314
296
309
324
293
309
319
288
292
316
301
278
311
311
287
304
315
294
299
316
299
290
313
313
276
307
315
282
298
318
299
283
311
301
270
296
299
266
289
311
286
281
312
298
262
308
323
291
309
328
303
297
318
310
280
318
322
289
308
321
297
290
312
294
259
273
266
218
244
266
267
297
350
346
328
354
337
291
315
319
291
297
323
310
285
312
318
283
307
310
286
303
328
311
297
321
316
283
314
327
286
302
318
303
299
319
307
274
305
313
279
300
325
292
286
307
304
269
296
306
271
287
308
302
314
334
328
307
336
349
319
346
367
334
343
369
346
328
356
355
318
343
357
312
327
346
324
314
336
344
296
325
346
302
314
341
310
301
319
318
285
310
316
284
298
318
292
283
307
302
266
286
302
275
293
321
290
279
310
295
270
316
313
267
289
311
278
274
302
289
271
312
316
266
288
308
261
266
289
279
264
275
278
246
264
285
251
260
279
268
264
282
295
259
285
299
265
268
290
276
262
291
294
252
284
300
257
271
300
275
263
291
296
270
293
306
265
279
312
274
271
304
294
268
297
312
278
311
338
292
285
326
311
285
305
320
282
292
319
288
295
323
312
296
314
322
293
304
333
299
294
326
304
284
304
302
258
250
268
229
244
313
316
327
381
366
321
314
332
283
292
322
296
290
313
312
283
306
326
294
311
336
310
301
324
327
292
319
342
293
309
331
304
296
315
322
301
319
325
282
286
315
280
276
297
283
256
276
292
256
270
299
270
274
304
305
285
312
326
288
314
342
315
325
347
331
314
342
345
328
330
358
320
329
361
346
344
365
362
330
352
372
330
342
372
342
331
358
348
323
345
363
323
327
350
324
308
337
332
313
333
348
317
325
345
316
321
351
332
308
328
335
307
307
340
299
299
333
312
296
318
318
292
295
322
308
315
340
316
301
322
327
291
298
322
284
287
320
293
289
310
324
295
298
329
299
318
346
303
276
303
303
278
295
309
284
298
325
287
278
322
301
275
312
343
324
297
308
283
291
314
281
262
296
300
271
284
319
284
283
322
302
295
318
318
293
305
331
300
299
330
304
297
334
328
315
335
352
323
327
355
328
315
353
346
320
347
352
322
342
370
334
316
340
312
277
299
310
303
351
393
382
375
390
351
318
329
336
320
330
353
328
315
351
324
302
323
318
296
310
327
296
297
329
307
283
320
315
286
309
338
308
308
342
319
297
339
328
299
325
339
308
306
338
303
284
316
305
274
301
308
277
285
320
300
286
334
325
302
334
343
320
320
348
327
313
353
327
302
338
349
318
321
343
318
305
348
325
300
332
327
297
306
351
325
305
349
318
302
332
327
299
313
333
300
288
327
304
282
321
313
291
315
328
303
303
339
325
304
347
342
312
341
351
318
321
343
320
307
340
325
298
333
336
302
312
343
318
301
337
314
290
316
321
289
302
332
306
289
337
317
294
330
330
304
315
345
317
306
341
322
294
328
320
297
306
325
294
285
326
305
278
314
302
270
270
304
276
270
303
281
254
297
290
273
290
295
260
267
306
277
247
276
269
243
265
272
252
262
311
289
271
311
294
274
305
310
279
282
311
286
276
309
295
271
278
256
216
244
273
289
317
363
386
347
364
347
298
298
320
298
308
340
308
279
311
318
291
311
326
292
282
327
310
283
326
318
293
313
329
309
301
334
315
289
324
314
277
303
305
273
281
309
288
274
320
301
265
301
307
283
302
332
309
286
322
328
305
336
340
317
342
363
341
328
353
351
312
346
341
316
337
345
309
310
336
317
298
340
325
292
319
325
306
297
321
307
284
321
309
271
298
306
274
281
305
288
265
301
295
264
299
314
288
299
323
306
288
325
324
291
326
332
310
307
327
300
289
317
297
279
306
306
266
285
298
283
291
316
301
273
313
319
276
296
307
281
286
308
293
270
303
305
269
299
311
278
281
305
284
264
295
290
247
273
279
263
288
305
284
272
292
293
259
293
308
274
292
316
295
287
314
308
279
314
325
282
302
323
305
293
322
308
277
300
288
228
243
269
266
298
342
358
343
356
332
281
296
305
276
282
308
292
266
290
304
270
294
310
271
281
306
286
271
296
292
263
287
306
277
298
322
295
284
314
311
279
299
318
273
279
306
270
277
301
291
275
293
299
265
286
311
276
288
322
307
292
326
340
315
329
352
316
323
371
320
314
344
343
321
339
356
317
324
350
329
307
340
330
297
318
340
303
310
340
310
298
332
331
302
316
332
295
304
332
301
304
339
324
299
310
329
293
295
331
301
295
317
305
287
308
325
281
294
335
288
283
332
312
295
314
325
290
300
332
293
288
327
307
289
313
324
293
303
321
286
295
328
302
288
312
321
287
301
327
281
292
329
308
296
316
316
293
311
332
295
298
333
310
294
329
333
303
316
342
299
310
331
308
296
323
319
293
315
349
291
304
335
300
294
323
312
287
315
311
281
298
326
288
291
320
302
285
309
314
277
289
326
295
299
329
306
282
307
307
251
246
275
235
270
328
337
348
367
347
305
291
323
283
282
320
300
282
311
304
278
289
314
279
275
309
284
272
298
292
265
283
303
268
273
310
279
270
306
291
272
288
305
275
279
312
276
271
299
284
276
299
308
286
284
314
284
279
328
302
291
318
332
305
314
347
317
311
349
334
319
344
337
308
321
345
310
312
350
322
308
334
331
301
315
345
308
304
340
313
295
327
322
299
308
322
304
295
330
311
292
326
316
287
301
315
294
288
322
295
281
318
306
288
308
315
286
293
326
301
284
321
304
292
321
330
296
300
333
305
291
335
319
293
321
332
307
312
347
314
287
331
318
300
328
334
310
320
342
303
288
326
299
295
335
313
291
318
332
299
296
339
323
306
343
332
298
319
338
311
305
332
313
290
328
315
293
310
321
295
295
325
301
285
321
301
270
295
302
280
283
315
292
277
315
305
275
306
312
292
299
328
308
295
331
312
271
300
285
251
259
284
263
282
356
356
355
395
381
319
306
313
302
296
337
323
291
330
331
295
324
353
314
301
335
315
285
322
319
291
313
324
297
295
323
302
279
310
308
281
312
315
279
278
298
288
272
303
289
277
299
299
270
290
310
290
275
308
301
282
320
324
290
311
335
322
324
364
353
328
361
348
314
329
344
312
315
339
316
301
328
335
295
325
337
304
315
334
309
292
313
312
280
308
321
278
290
307
283
281
306
300
270
299
316
296
313
343
306
308
332
322
300
333
340
303
317
342
314
314
340
331
313
337
339
291
316
344
306
317
339
299
289
327
331
294
312
333
297
300
325
306
295
316
318
287
306
330
296
304
335
298
279
324
319
287
309
328
293
300
332
302
295
317
303
278
306
321
283
298
324
287
286
310
295
286
310
322
275
288
322
284
286
319
304
288
309
325
293
312
338
298
305
327
309
296
319
328
301
314
343
303
302
326
288
258
264
257
234
269
335
313
330
381
345
306
325
311
284
301
327
292
295
329
295
284
319
302
280
299
316
292
296
326
296
296
336
313
288
316
320
296
305
323
310
283
328
302
283
306
305
281
293
314
270
269
313
293
274
303
296
282
300
315
286
277
330
310
297
337
327
304
328
350
327
329
360
327
313
347
336
319
337
345
313
305
337
305
298
329
309
300
333
323
296
297
325
295
277
319
303
273
303
304
278
290
310
284
277
313
290
265
299
298
276
293
306
290
269
296
280
275
310
299
267
278
295
274
263
302
279
262
296
281
255
270
292
259
257
296
277
264
299
285
256
289
298
273
274
309
288
268
307
296
270
296
295
276
280
315
292
272
309
290
267
286
298
294
295
320
296
285
331
302
282
312
317
294
311
337
315
302
340
312
287
317
323
299
302
322
286
306
343
303
280
318
302
275
305
316
275
270
303
297
281
310
308
292
314
311
260
259
270
252
230
291
317
309
370
395
337
322
335
312
290
331
320
271
334
355
317
332
345
317
304
342
339
306
351
347
313
329
350
319
305
339
335
301
332
329
303
332
326
297
285
314
318
275
275
282
284
308
279
261
272
337
272
200
309
339
294
325
347
336
377
407
396
396
454
469
442
469
493
447
479
489
464
447
462
432
392
446
445
380
399
418
384
355
347
343
301
301
282
217
207
249
234
222
239
230
209
229
229
195
220
244
221
226
261
268
261
293
311
281
312
340
310
307
327
295
304
336
328
306
333
342
305
309
325
327
320
335
317
306
323
339
296
306
342
311
301
334
321
292
311
320
280
295
318
277
277
304
286
270
291
297
271
286
311
267
265
308
292
267
294
304
264
279
307
275
282
311
281
262
289
292
255
270
312
269
276
331
289
275
307
293
266
281
299
266
275
305
273
268
300
281
229
229
253
235
255
332
315
313
375
349
302
294
296
269
280
307
295
281
318
284
268
309
310
283
290
317
284
269
316
298
281
308
301
277
282
313
276
275
318
279
261
314
309
281
295
296
274
271
321
290
244
295
284
267
279
292
273
273
312
287
279
326
324
299
325
357
329
356
390
344
318
353
361
331
344
320
316
327
347
312
296
334
326
291
325
333
299
303
330
299
286
327
307
282
305
305
274
301
320
283
262
299
291
269
300
296
267
289
303
281
273
304
295
272
309
299
264
299
306
272
282
319
286
260
306
305
293
319
324
292
315
336
308
306
332
316
309
342
342
308
332
341
312
313
343
330
305
338
343
309
333
347
312
318
346
339
315
333
344
304
334
345
303
304
321
316
300
320
315
268
293
309
270
281
306
286
281
313
319
287
310
332
293
307
340
320
304
334
333
306
341
329
283
298
292
249
248
287
311
313
348
395
351
341
335
291
284
324
296
285
317
317
290
302
329
285
291
326
311
298
326
330
302
313
330
296
301
321
279
277
307
311
282
301
317
281
293
320
272
266
300
285
268
292
306
275
281
312
279
277
313
304
288
316
334
306
324
364
337
339
370
351
336
357
367
336
350
377
336
330
369
351
326
349
361
329
337
368
327
326
370
337
317
334
345
314
326
359
307
293
343
309
307
348
343
317
335
346
315
311
340
308
291
324
307
289
311
313
296
296
326
292
288
326
305
285
310
315
282
284
316
285
281
317
311
293
326
317
284
309
337
309
298
333
312
293
324
319
290
301
311
290
280
321
297
275
300
304
283
307
307
284
292
338
309
284
317
309
282
300
311
284
283
315
293
271
312
300
262
293
313
282
288
305
285
264
306
305
258
295
301
270
285
299
281
274
309
304
278
310
304
275
298
315
297
283
310
307
277
297
289
237
242
251
223
248
316
322
313
357
339
276
294
303
272
283
306
294
274
308
312
275
303
317
280
286
315
307
292
318
321
294
324
341
305
320
362
315
304
331
347
292
316
331
292
306
325
294
288
314
298
266
291
295
271
296
318
278
282
308
292
283
306
326
296
322
350
313
323
353
337
324
351
357
320
341
362
317
325
350
323
315
343
333
310
325
337
301
312
346
313
304
329
323
296
319
335
298
305
335
304
297
327
316
290
310
327
294
308
333
300
299
329
310
290
316
322
290
297
323
294
297
323
293
285
323
318
285
298
318
286
287
332
297
284
317
308
291
304
320
295
297
328
304
290
323
320
295
308
323
304
294
329
310
299
334
312
294
314
322
299
303
333
303
287
336
317
295
324
320
304
312
343
312
303
341
323
300
330
324
300
311
334
306
302
338
309
290
333
333
304
310
326
291
290
329
308
292
330
330
304
311
343
318
312
346
323
306
345
332
293
315
321
292
276
271
239
222
260
281
289
332
370
342
320
317
275
250
282
275
256
281
285
259
264
292
272
253
288
281
249
286
293
267
280
299
277
264
297
294
267
294
297
271
291
312
284
274
310
294
265
304
308
285
292
311
290
283
314
298
279
318
319
290
314
327
306
312
351
343
335
362
359
318
350
371
332
351
379
352
347
352
352
327
349
358
314
328
348
321
311
335
335
298
321
327
284
304
326
293
295
324
308
287
308
321
282
301
324
291
298
321
326
287
310
318
282
300
321
286
289
315
293
281
306
308
274
298
331
289
297
327
301
263
294
313
293
317
323
283
290
322
292
282
305
294
268
275
296
262
269
300
271
262
288
279
261
284
301
273
281
316
286
281
316
297
279
297
315
293
295
330
307
300
339
320
299
325
320
294
300
322
297
291
324
304
286
315
292
276
301
328
294
301
333
316
296
335
332
302
332
339
318
315
328
333
320
356
357
317
339
319
271
270
292
282
311
365
371
367
385
366
315
318
325
303
293
326
328
297
329
332
304
328
343
324
302
319
316
292
324
330
275
297
327
291
299
329
311
293
319
311
274
298
319
286
291
310
285
269
285
294
256
274
294
268
285
308
287
275
299
295
284
321
328
291
329
357
315
316
356
353
317
330
347
306
311
334
300
295
327
305
285
318
310
276
294
325
285
282
315
290
281
311
294
272
291
301
288
290
327
298
290
335
320
298
319
324
292
309
342
305
290
332
315
293
324
319
297
306
333
307
298
341
320
303
331
325
298
319
341
299
294
338
323
310
339
329
304
325
336
318
309
346
327
307
339
320
293
318
331
303
303
331
324
286
327
316
292
316
320
300
302
326
306
286
319
308
275
297
306
278
277
314
297
273
309
295
272
303
304
282
303
325
295
267
304
306
284
311
314
292
304
325
305
279
309
298
274
307
309
280
308
322
302
298
323
310
283
315
315
286
309
326
295
296
311
298
277
286
256
227
264
303
306
335
372
377
333
335
339
293
301
321
303
320
352
331
309
344
347
306
330
336
301
307
325
310
299
332
334
301
334
343
306
319
345
321
318
351
345
315
329
360
326
334
341
299
292
305
300
272
295
301
263
274
300
273
285
316
314
287
315
338
300
322
347
309
309
344
336
320
345
335
303
332
370
331
323
345
332
313
332
331
294
313
327
288
296
319
288
286
326
303
276
287
300
283
286
312
291
271
323
308
287
322
339
299
295
323
294
297
309
296
277
308
322
287
301
336
306
302
339
322
306
334
344
310
323
351
317
317
351
322
302
324
325
293
302
329
284
275
304
272
258
293
283
265
278
293
254
247
302
300
281
311
294
248
264
282
260
258
298
277
275
320
317
304
330
346
323
319
348
325
303
346
335
300
312
313
276
284
309
274
264
300
267
246
248
255
265
275
304
272
270
319
291
263
295
285
247
251
258
227
214
274
311
292
332
362
323
327
321
290
259
278
261
248
283
264
244
278
281
251
251
280
249
233
286
278
259
280
290
265
269
302
275
267
303
293
265
298
303
279
295
318
290
281
315
305
265
297
301
278
300
327
299
302
341
336
306
339
339
305
336
356
331
334
361
339
320
352
351
314
346
349
317
321
348
336
318
344
344
306
331
332
306
309
335
310
292
324
322
286
312
321
289
310
320
303
294
313
309
278
307
311
269
296
315
293
286
311
301
284
308
316
283
304
316
294
293
318
314
282
305
314
283
295
321
286
295
308
292
274
296
305
285
308
329
294
306
333
308
301
320
324
292
315
338
300
312
335
311
310
332
321
299
317
331
299
305
335
297
300
328
312
295
319
333
300
314
345
303
308
351
323
297
329
339
298
309
339
305
304
336
317
297
319
333
305
312
343
306
298
325
310
295
333
328
300
317
338
303
295
330
295
286
317
302
281
306
326
306
302
323
282
252
273
259
235
274
312
324
342
393
351
296
332
321
293
301
311
306
319
344
311
294
324
295
260
308
311
277
262
256
259
256
309
275
208
287
336
313
345
378
373
362
397
392
383
431
443
424
446
471
443
428
436
426
400
421
412
358
365
377
337
304
291
256
238
258
247
198
214
236
201
197
217
198
182
207
209
187
218
245
218
233
261
238
224
273
270
234
261
293
261
274
296
289
283
313
308
271
297
311
283
292
310
293
280
319
326
285
320
333
306
316
331
308
288
312
307
276
308
305
273
294
310
285
268
307
308
276
307
311
268
293
314
293
290
326
315
274
310
342
308
329
342
306
317
342
328
299
328
323
287
314
331
292
299
324
308
295
309
328
291
326
327
287
288
315
306
282
302
318
265
270
289
287
260
233
312
273
347
384
350
367
380
334
349
388
370
381
429
455
460
500
509
515
478
490
462
450
470
441
423
437
433
373
368
370
288
272
295
277
229
242
254
229
229
253
207
198
235
192
144
146
157
146
181
207
208
229
236
192
174
201
196
172
201
230
202
209
254
243
226
268
259
220
263
298
276
272
297
265
274
304
297
277
304
317
296
298
329
300
291
320
300
281
310
302
280
304
303
264
301
324
281
295
318
306
288
294
325
308
328
348
309
333
348
342
331
359
366
328
347
364
321
339
358
329
318
340
334
298
319
332
289
296
317
291
278
306
292
272
297
316
258
298
348
311
320
360
348
318
336
349
344
368
406
381
380
391
366
345
365
370
325
344
364
319
312
329
293
258
285
291
244
247
300
265
253
287
268
264
290
270
249
288
319
289
286
321
295
289
325
316
289
306
325
288
289
321
274
281
329
298
279
301
308
288
287
319
289
284
316
293
275
299
296
289
292
313
284
275
308
295
279
313
316
292
301
320
276
297
337
312
274
288
307
294
304
319
279
272
312
269
229
267
258
278
360
376
363
362
376
321
288
311
302
273
312
326
304
308
340
318
300
348
339
308
334
325
331
340
354
333
327
348
335
305
338
332
306
318
331
310
314
334
327
290
316
326
300
314
321
297
287
310
304
282
316
319
289
307
330
313
316
340
330
323
350
346
293
313
346
317
306
320
325
305
325
303
285
328
329
298
312
327
310
289
314
310
278
295
309
276
291
313
285
284
315
309
261
309
349
304
317
353
315
310
341
354
326
353
372
320
336
355
320
318
340
324
309
341
348
307
317
337
300
309
315
293
284
307
302
286
310
332
284
283
314
320
308
330
342
300
330
344
290
310
351
309
303
333
356
328
328
351
306
293
314
265
252
292
273
239
232
251
179
133
131
77
53
70
40
23
48
88
106
154
228
228
252
314
310
301
327
342
311
318
355
326
320
357
344
328
354
354
333
336
359
326
309
362
337
307
342
338
311
328
347
316
306
328
302
237
245
231
205
246
290
275
292
312
271
239
268
248
220
251
278
253
260
307
299
291
352
353
342
385
407
386
390
421
426
409
444
435
411
436
449
426
422
451
430
401
438
426
388
411
414
382
399
414
368
351
381
363
336
367
361
327
341
368
345
324
347
346
319
355
357
321
336
357
342
331
358
339
313
344
347
318
351
363
319
325
330
317
317
350
342
302
327
335
309
316
335
326
308
342
336
290
326
357
305
305
334
320
298
321
329
312
335
332
292
307
324
312
300
326
324
289
314
326
277
289
311
294
296
308
299
276
302
316
272
295
317
281
275
307
297
270
292
305
269
282
309
282
280
303
298
279
309
315
281
298
320
286
288
308
304
287
313
325
294
302
320
286
308
339
318
304
328
322
293
305
334
298
306
339
307
303
326
318
292
309
333
290
304
335
298
296
325
318
294
315
333
299
308
345
314
314
354
327
309
330
350
308
308
327
294
267
281
251
240
290
337
335
374
416
369
332
348
320
302
339
328
320
327
288
309
324
279
291
311
280
276
293
279
259
278
284
254
269
302
258
264
285
267
250
272
268
237
250
269
238
238
272
239
226
270
263
231
245
273
237
244
281
251
249
281
278
260
297
310
294
302
339
308
299
337
328
306
326
343
305
310
338
303
295
326
305
288
314
314
288
290
319
290
279
323
299
279
300
308
281
292
324
294
289
319
296
297
325
316
295
305
329
307
298
333
310
285
322
317
291
310
327
307
305
334
311
285
329
320
295
313
329
312
315
337
316
291
350
325
295
323
332
302
310
333
314
301
338
329
295
327
333
302
313
329
324
303
334
322
288
319
324
299
307
326
299
283
316
308
280
318
318
289
303
321
298
307
328
314
283
317
319
276
307
310
291
295
328
312
294
333
333
293
315
326
295
296
329
310
286
316
318
274
310
319
292
293
318
289
234
250
266
223
269
316
300
327
349
306
266
290
278
241
275
297
264
279
295
265
262
302
296
260
281
298
269
286
304
278
272
293
286
256
282
292
256
275
293
264
268
288
274
239
250
282
260
274
304
270
270
295
283
269
284
294
261
279
316
281
282
320
325
309
343
344
321
348
378
354
336
372
336
313
347
341
303
311
343
308
330
368
328
298
321
341
335
350
356
316
319
358
345
342
371
358
335
354
369
344
360
383
351
334
359
323
305
322
326
294
302
330
295
281
310
299
281
315
312
292
306
334
314
308
355
327
314
340
331
301
307
319
291
284
308
285
264
309
301
269
290
300
278
274
306
272
254
296
275
255
292
295
275
284
311
306
298
332
331
309
339
340
318
330
353
337
318
344
333
303
340
336
301
309
334
309
305
338
338
296
322
316
287
317
325
294
291
314
313
270
317
331
284
318
337
313
317
327
296
292
332
324
292
310
330
295
294
315
301
305
365
391
373
420
440
374
371
382
336
321
339
327
287
306
302
262
284
313
264
273
298
266
232
251
248
206
223
275
226
214
267
262
270
301
304
287
311
328
313
334
406
372
376
426
409
376
384
364
335
354
353
290
301
318
286
277
291
285
252
270
304
277
274
302
271
261
301
317
301
318
351
327
328
360
325
304
350
356
329
342
339
310
294
340
324
301
338
325
299
326
337
312
321
347
324
302
340
339
314
351
357
333
359
406
389
381
409
409
381
423
429
413
441
481
472
466
490
467
432
449
426
382
399
424
385
378
403
370
341
362
349
300
315
313
270
303
329
316
290
299
277
239
266
260
201
201
219
194
169
183
179
168
197
237
192
195
230
208
198
223
224
203
242
259
229
259
283
250
242
280
271
256
288
294
257
268
298
286
298
321
297
276
308
307
281
289
321
284
277
318
311
302
319
311
261
288
324
276
281
302
256
230
254
260
262
330
383
381
398
428
381
349
381
360
335
361
379
346
358
383
336
335
355
341
309
335
334
294
299
322
279
276
307
280
261
286
300
285
279
306
267
264
288
269
243
277
284
266
282
320
302
316
352
343
343
388
388
373
397
415
396
408
442
428
412
448
433
401
422
413
394
402
418
378
352
376
352
315
336
315
289
292
301
283
268
299
282
257
284
290
248
272
278
241
252
285
267
247
285
276
245
272
285
263
273
289
271
258
287
284
251
284
297
266
290
307
281
276
302
285
262
291
307
263
292
311
274
279
318
306
292
317
328
303
332
357
318
328
346
317
306
336
344
317
331
356
319
331
354
333
327
354
351
327
333
353
314
324
351
323
323
352
345
319
345
368
331
351
378
344
347
373
372
358
385
384
336
344
376
338
325
363
357
340
358
362
323
329
350
311
311
342
318
300
316
304
266
266
288
241
239
264
215
178
213
224
179
205
265
262
289
337
286
251
277
256
259
257
285
250
249
295
267
257
290
279
267
285
294
269
275
304
275
263
304
285
264
288
299
281
278
307
278
255
290
285
269
287
286
260
259
280
246
235
277
263
228
261
266
238
254
260
247
240
280
275
253
290
291
262
285
312
289
278
309
291
260
299
290
246
272
287
268
262
277
252
223
255
242
212
235
254
229
234
265
245
234
280
280
246
271
261
202
152
147
113
78
110
116
91
129
151
129
141
170
160
137
201
204
176
211
219
194
215
235
226
221
256
257
236
281
306
281
322
348
331
349
386
381
364
405
414
379
401
430
402
399
428
419
395
421
428
391
414
452
398
408
431
410
392
416
416
391
417
420
387
397
424
392
384
411
401
370
391
402
364
374
393
361
360
387
368
346
380
373
338
346
376
332
332
366
341
329
346
342
335
346
362
324
320
362
332
321
354
343
322
337
353
315
312
350
318
299
342
329
310
321
334
312
308
337
293
256
275
261
246
303
333
322
355
384
325
301
321
292
271
289
308
284
292
313
277
279
321
300
283
329
328
292
303
320
300
295
326
306
285
321
311
281
299
310
286
279
320
297
278
316
310
290
304
311
289
288
317
303
281
319
313
286
314
311
289
307
348
328
319
